TS_Machine,bvp
1555570886.13767,-30.37275
1555570886.15329,-28.4965
1555570886.16892,-24.55466
1555570886.18454,-18.89448
1555570886.20017,-12.1384
1555570886.21579,-5.043042
1555570886.23142,1.658562
1555570886.24705,7.391845
1555570886.26267,11.84655
1555570886.2783,14.95121
1555570886.29392,16.8766
1555570886.30955,17.91584
1555570886.32517,18.35672
1555570886.3408,18.38526
1555570886.35643,18.05832
1555570886.37205,17.302
1555570886.38768,16.08106
1555570886.4033,14.45094
1555570886.41893,12.64192
1555570886.43456,11.00153
1555570886.45018,9.877233
1555570886.46581,9.478005
1555570886.48143,9.794104
1555570886.49706,10.6224
1555570886.51268,11.67492
1555570886.52831,12.63475
1555570886.54394,13.25655
1555570886.55956,13.33288
1555570886.57519,12.72893
1555570886.59081,11.36448
1555570886.60644,9.3043
1555570886.62206,6.738337
1555570886.63769,3.964647
1555570886.65332,1.288973
1555570886.66894,-1.052206
1555570886.68457,-2.997232
1555570886.70019,-4.631611
1555570886.71582,-6.158407
1555570886.73144,-7.793379
1555570886.74707,-9.678492
1555570886.7627,-11.8384
1555570886.77832,-14.2052
1555570886.79395,-16.68838
1555570886.80957,-19.21346
1555570886.8252,-21.73734
1555570886.84082,-24.19827
1555570886.85645,-26.42062
1555570886.87208,-28.12101
1555570886.8877,-28.92517
1555570886.90333,-28.45664
1555570886.91895,-26.46285
1555570886.93458,-22.90756
1555570886.9502,-17.97611
1555570886.96583,-12.03362
1555570886.98146,-5.520273
1555570886.99708,1.056911
1555570887.01271,7.196737
1555570887.02833,12.41925
1555570887.04396,16.34811
1555570887.05958,18.78242
1555570887.07521,19.78961
1555570887.09084,19.67906
1555570887.10646,18.88021
1555570887.12209,17.76613
1555570887.13771,16.54646
1555570887.15334,15.25154
1555570887.16896,13.87019
1555570887.18459,12.45259
1555570887.20022,11.17425
1555570887.21584,10.24405
1555570887.23147,9.814518
1555570887.24709,9.876556
1555570887.26272,10.25099
1555570887.27834,10.70721
1555570887.29397,11.03803
1555570887.3096,11.15315
1555570887.32522,11.01418
1555570887.34085,10.62639
1555570887.35647,9.930841
1555570887.3721,8.845152
1555570887.38772,7.328249
1555570887.40335,5.449358
1555570887.41898,3.408459
1555570887.4346,1.483658
1555570887.45023,-0.07523346
1555570887.46585,-1.192785
1555570887.48148,-2.008247
1555570887.4971,-2.812239
1555570887.51273,-3.941734
1555570887.52836,-5.621819
1555570887.54398,-7.895084
1555570887.55961,-10.63618
1555570887.57523,-13.65275
1555570887.59086,-16.81365
1555570887.60648,-20.08065
1555570887.62211,-23.45437
1555570887.63774,-26.84068
1555570887.65336,-29.95907
1555570887.66899,-32.35488
1555570887.68461,-33.48317
1555570887.70024,-32.87202
1555570887.71586,-30.29807
1555570887.73149,-25.81124
1555570887.74712,-19.73268
1555570887.76274,-12.58521
1555570887.77837,-5.019732
1555570887.79399,2.311478
1555570887.80962,8.809595
1555570887.82524,14.01291
1555570887.84087,17.67543
1555570887.8565,19.7628
1555570887.87212,20.45893
1555570887.88775,20.09199
1555570887.90337,19.07906
1555570887.919,17.77617
1555570887.93462,16.47306
1555570887.95025,15.3446
1555570887.96588,14.45723
1555570887.9815,13.78854
1555570887.99713,13.29097
1555570888.01275,12.90979
1555570888.02838,12.6363
1555570888.044,12.46804
1555570888.05963,12.41798
1555570888.07526,12.47023
1555570888.09088,12.54731
1555570888.10651,12.51687
1555570888.12213,12.18626
1555570888.13776,11.40657
1555570888.15338,10.07684
1555570888.16901,8.245537
1555570888.18464,6.088711
1555570888.20026,3.845753
1555570888.21589,1.754114
1555570888.23151,-0.07706451
1555570888.24714,-1.708893
1555570888.26276,-3.297972
1555570888.27839,-5.024574
1555570888.29402,-6.965874
1555570888.30964,-9.053076
1555570888.32527,-11.11961
1555570888.34089,-13.01908
1555570888.35652,-14.69772
1555570888.37214,-16.21815
1555570888.38777,-17.74744
1555570888.4034,-19.43917
1555570888.41902,-21.37505
1555570888.43465,-23.52393
1555570888.45027,-25.70586
1555570888.4659,-27.61851
1555570888.48152,-28.8485
1555570888.49715,-28.9609
1555570888.51278,-27.59877
1555570888.5284,-24.57146
1555570888.54403,-19.96029
1555570888.55965,-14.09547
1555570888.57528,-7.50988
1555570888.5909,-0.817955
1555570888.60653,5.38776
1555570888.62216,10.647
1555570888.63778,14.67004
1555570888.65341,17.33903
1555570888.66903,18.73761
1555570888.68466,19.02871
1555570888.70028,18.48025
1555570888.71591,17.3122
1555570888.73154,15.72019
1555570888.74716,13.86299
1555570888.76279,11.94226
1555570888.77841,10.20707
1555570888.79404,8.90674
1555570888.80966,8.174952
1555570888.82529,8.022366
1555570888.84092,8.314575
1555570888.85654,8.876808
1555570888.87217,9.577684
1555570888.88779,10.37507
1555570888.90342,11.24744
1555570888.91904,12.13829
1555570888.93467,12.91384
1555570888.9503,13.36728
1555570888.96592,13.28652
1555570888.98155,12.56333
1555570888.99717,11.20583
1555570889.0128,9.346897
1555570889.02842,7.198074
1555570889.04405,4.98938
1555570889.05968,2.901375
1555570889.0753,1.027393
1555570889.09093,-0.6408997
1555570889.10655,-2.208935
1555570889.12218,-3.793545
1555570889.13781,-5.504669
1555570889.15343,-7.359886
1555570889.16906,-9.294231
1555570889.18468,-11.23833
1555570889.20031,-13.07935
1555570889.21593,-14.66623
1555570889.23156,-15.74343
1555570889.24719,-15.96072
1555570889.26281,-14.89777
1555570889.27844,-12.25417
1555570889.29406,-8.013412
1555570889.30969,-2.510666
1555570889.32531,3.648293
1555570889.34094,9.753296
1555570889.37219,19.49917
1555570889.35657,15.1716
1555570889.38782,22.55178
1555570889.40344,24.34705
1555570889.41907,24.97931
1555570889.43469,24.61767
1555570889.45032,23.46172
1555570889.46595,21.75988
1555570889.48157,19.79788
1555570889.4972,17.84321
1555570889.51282,16.08669
1555570889.52845,14.60405
1555570889.54407,13.35324
1555570889.5597,12.18788
1555570889.57533,10.95502
1555570889.59095,9.541519
1555570889.60658,7.922638
1555570889.6222,6.197136
1555570889.63783,4.516285
1555570889.65345,3.062721
1555570889.66908,1.94693
1555570889.68471,1.170105
1555570889.70033,0.6198654
1555570889.71596,0.1096725
1555570889.73158,-0.5880203
1555570889.74721,-1.742538
1555570889.76283,-3.5812
1555570889.77846,-6.239189
1555570889.79409,-9.696892
1555570889.80971,-13.75885
1555570889.82534,-18.04645
1555570889.84096,-22.13197
1555570889.85659,-25.62093
1555570889.87221,-28.3246
1555570889.88784,-30.30369
1555570889.90347,-31.82583
1555570889.91909,-33.25307
1555570889.93472,-34.88375
1555570889.95034,-36.79529
1555570889.96597,-38.71333
1555570889.98159,-40.03353
1555570889.99722,-39.93551
1555570890.01285,-37.669
1555570890.02847,-32.86678
1555570890.0441,-25.72621
1555570890.05972,-17.02191
1555570890.07535,-7.854645
1555570890.09097,0.7098618
1555570890.1066,7.922173
1555570890.12223,13.46344
1555570890.13785,17.33276
1555570890.15348,19.66
1555570890.1691,20.57323
1555570890.18473,20.1834
1555570890.20035,18.68478
1555570890.21598,16.41965
1555570890.23161,13.91679
1555570890.24723,11.69999
1555570890.26286,10.18147
1555570890.27848,9.50853
1555570890.29411,9.568382
1555570890.30973,10.05985
1555570890.32536,10.63602
1555570890.34099,11.04334
1555570890.35661,11.18892
1555570890.37224,11.12186
1555570890.38786,10.9837
1555570890.40349,10.90901
1555570890.41911,10.94969
1555570890.43474,11.04137
1555570890.45037,11.03066
1555570890.46599,10.6821
1555570890.48162,9.744514
1555570890.49724,7.98909
1555570890.51287,5.271759
1555570890.52849,1.602554
1555570890.54412,-2.781151
1555570890.55975,-7.407806
1555570890.57537,-11.68068
1555570890.591,-15.02486
1555570890.60662,-17.10046
1555570890.62225,-17.93889
1555570890.63787,-17.93916
1555570890.6535,-17.75874
1555570890.66913,-18.06767
1555570890.68475,-19.32012
1555570890.70038,-21.60424
1555570890.716,-24.62656
1555570890.73163,-27.79565
1555570890.74725,-30.37344
1555570890.76288,-31.66072
1555570890.77851,-31.1216
1555570890.79413,-28.52028
1555570890.80976,-23.95224
1555570890.82538,-17.81651
1555570890.84101,-10.8071
1555570890.85663,-3.759766
1555570890.87226,2.494919
1555570890.88789,7.303711
1555570890.90351,10.36427
1555570890.91914,11.79817
1555570890.93476,12.03865
1555570890.95039,11.67036
1555570890.96601,11.192
1555570890.98164,10.89523
1555570890.99727,10.80721
1555570891.01289,10.82111
1555570891.02852,10.81018
1555570891.04414,10.71821
1555570891.05977,10.58301
1555570891.07539,10.47565
1555570891.09102,10.45723
1555570891.10665,10.57889
1555570891.12227,10.85696
1555570891.1379,11.29523
1555570891.15352,11.86769
1555570891.16915,12.50113
1555570891.18477,13.08634
1555570891.2004,13.51794
1555570891.21603,13.75628
1555570891.23165,13.80006
1555570891.24728,13.65639
1555570891.2629,13.26519
1555570891.27853,12.46343
1555570891.29416,11.06607
1555570891.30978,8.941322
1555570891.32541,6.104446
1555570891.34103,2.693008
1555570891.35666,-1.09819
1555570891.37228,-5.119171
1555570891.38791,-9.275986
1555570891.40354,-13.50017
1555570891.41916,-17.68982
1555570891.43479,-21.64835
1555570891.45041,-25.14651
1555570891.46604,-27.96068
1555570891.48166,-29.95033
1555570891.49729,-31.03913
1555570891.51292,-31.17258
1555570891.52854,-30.23724
1555570891.54417,-28.05319
1555570891.55979,-24.4466
1555570891.57542,-19.36114
1555570891.59104,-12.98264
1555570891.60667,-5.786407
1555570891.6223,1.538231
1555570891.63792,8.219658
1555570891.65355,13.60061
1555570891.66917,17.26091
1555570891.6848,19.084
1555570891.70042,19.2221
1555570891.71605,17.9985
1555570891.73168,15.80564
1555570891.7473,13.06108
1555570891.76293,10.19374
1555570891.77855,7.601952
1555570891.79418,5.634174
1555570891.8098,4.520023
1555570891.82543,4.260643
1555570891.84106,4.657478
1555570891.85668,5.394379
1555570891.87231,6.174229
1555570891.88793,6.828735
1555570891.90356,7.357464
1555570891.91918,7.834232
1555570891.93481,8.33218
1555570891.95044,8.739773
1555570891.96606,8.772583
1555570891.98169,8.08305
1555570891.99731,6.426144
1555570892.01294,3.836479
1555570892.02856,0.6534233
1555570892.04419,-2.574726
1555570892.05982,-5.329815
1555570892.07544,-7.302231
1555570892.09107,-8.515835
1555570892.10669,-9.232292
1555570892.12232,-9.814022
1555570892.13794,-10.5938
1555570892.15357,-11.77682
1555570892.1692,-13.45647
1555570892.18482,-15.63764
1555570892.20045,-18.25365
1555570892.21607,-21.08461
1555570892.2317,-23.7424
1555570892.24732,-25.67603
1555570892.26295,-26.33072
1555570892.27858,-25.31841
1555570892.2942,-22.56443
1555570892.30983,-18.31514
1555570892.32545,-12.99425
1555570892.34108,-7.071686
1555570892.3567,-0.9166489
1555570892.37233,5.225601
1555570892.38796,11.17707
1555570892.40358,16.78123
1555570892.41921,21.87299
1555570892.43483,26.25817
1555570892.45046,29.74063
1555570892.46608,32.11988
1555570892.48171,33.21659
1555570892.49734,32.95117
1555570892.51296,31.43184
1555570892.52859,29.00973
1555570892.54421,26.24268
1555570892.55984,23.76666
1555570892.57546,22.10265
1555570892.59109,21.44055
1555570892.60672,21.5908
1555570892.62234,22.05168
1555570892.63797,22.14812
1555570892.65359,21.3088
1555570892.66922,19.21868
1555570892.68484,15.89263
1555570892.70047,11.67426
1555570892.7161,7.100021
1555570892.73172,2.746746
1555570892.74735,-0.9355087
1555570892.76297,-3.724178
1555570892.7786,-5.668045
1555570892.79422,-7.009842
1555570892.80985,-8.100937
1555570892.82548,-9.306612
1555570892.8411,-10.91586
1555570892.85673,-13.0965
1555570892.87235,-15.87458
1555570892.88798,-19.15482
1555570892.9036,-22.72877
1555570892.91923,-26.37381
1555570892.93486,-29.93055
1555570892.95048,-33.40839
1555570892.96611,-36.92039
1555570892.98173,-40.60743
1555570892.99736,-44.451
1555570893.01298,-48.16483
1555570893.02861,-51.20956
1555570893.04424,-52.95527
1555570893.05986,-52.90842
1555570893.07549,-50.85166
1555570893.09111,-47.00006
1555570893.10674,-41.89465
1555570893.12236,-36.28594
1555570893.13799,-30.93987
1555570893.15362,-26.44984
1555570893.16924,-23.15808
1555570893.18487,-21.0588
1555570893.20049,-19.8279
1555570893.21612,-18.89387
1555570893.23174,-17.5796
1555570893.24737,-15.28533
1555570893.263,-11.68292
1555570893.27862,-6.800808
1555570893.29425,-0.9713483
1555570893.30987,5.300172
1555570893.3255,11.52965
1555570893.34112,17.42081
1555570893.35675,22.93807
1555570893.37238,28.24257
1555570893.388,33.51794
1555570893.40363,38.83208
1555570893.41925,43.99386
1555570893.43488,48.62101
1555570893.4505,52.26131
1555570893.46613,54.56714
1555570893.48176,55.44618
1555570893.49738,54.9817
1555570893.51301,53.38258
1555570893.52863,50.82646
1555570893.54426,47.37811
1555570893.55989,43.02572
1555570893.57551,37.78145
1555570893.59114,31.80217
1555570893.60676,25.39474
1555570893.62239,18.93662
1555570893.63801,12.77686
1555570893.65364,7.149685
1555570893.66927,2.146317
1555570893.68489,-2.227783
1555570893.70052,-6.023148
1555570893.71614,-9.351635
1555570893.73177,-12.39313
1555570893.74739,-15.3443
1555570893.76302,-18.3354
1555570893.77865,-21.24797
1555570893.79427,-23.63119
1555570893.8099,-24.77859
1555570893.82552,-23.96104
1555570893.84115,-20.78703
1555570893.85677,-15.42024
1555570893.8724,-8.608414
1555570893.88803,-1.47327
1555570893.90365,4.902649
1555570893.91928,9.843807
1555570893.9349,13.21615
1555570893.95053,15.28876
1555570893.96615,16.50621
1555570893.98178,17.17854
1555570893.99741,17.38726
1555570894.01303,17.00816
1555570894.02866,15.92627
1555570894.04428,14.16066
1555570894.05991,11.92718
1555570894.07553,9.591324
1555570894.09116,7.527561
1555570894.10679,6.0219
1555570894.12241,5.22588
1555570894.13804,5.148563
1555570894.15366,5.701595
1555570894.16929,6.725128
1555570894.18491,7.9855
1555570894.20054,9.187222
1555570894.21617,10.0242
1555570894.23179,10.25468
1555570894.24742,9.82225
1555570894.26304,8.85965
1555570894.27867,7.70105
1555570894.29429,6.692188
1555570894.30992,6.045937
1555570894.32555,5.712399
1555570894.34117,5.376667
1555570894.3568,4.651428
1555570894.37242,3.284817
1555570894.38805,1.311729
1555570894.40367,-0.9526978
1555570894.4193,-3.118328
1555570894.43493,-4.881359
1555570894.45055,-6.215565
1555570894.46618,-7.342834
1555570894.4818,-8.621841
1555570894.49743,-10.41177
1555570894.51305,-12.97374
1555570894.52868,-16.40132
1555570894.54431,-20.6016
1555570894.55993,-25.24716
1555570894.57556,-29.73817
1555570894.59118,-33.28772
1555570894.60681,-35.02381
1555570894.62243,-34.22845
1555570894.63806,-30.57871
1555570894.65369,-24.26276
1555570894.66931,-15.95042
1555570894.68494,-6.624283
1555570894.70056,2.655571
1555570894.71619,10.97725
1555570894.73181,17.7103
1555570894.74744,22.55541
1555570894.76307,25.50624
1555570894.77869,26.80575
1555570894.79432,26.82011
1555570894.80994,25.97179
1555570894.82557,24.64751
1555570894.84119,23.10568
1555570894.85682,21.48533
1555570894.87245,19.78836
1555570894.88807,17.931
1555570894.9037,15.82617
1555570894.91932,13.42305
1555570894.93495,10.79409
1555570894.95057,8.12962
1555570894.9662,5.71246
1555570894.98183,3.818153
1555570894.99745,2.697342
1555570895.01308,2.460644
1555570895.0287,3.10228
1555570895.04433,4.483242
1555570895.05995,6.341053
1555570895.07558,8.315617
1555570895.09121,9.994377
1555570895.10683,10.97024
1555570895.12246,10.96024
1555570895.13808,9.888916
1555570895.15371,7.920559
1555570895.16933,5.406088
1555570895.18496,2.730339
1555570895.20059,0.1552505
1555570895.21621,-2.278616
1555570895.23184,-4.744579
1555570895.24746,-7.519152
1555570895.26309,-10.83293
1555570895.27871,-14.74631
1555570895.29434,-19.10728
1555570895.30997,-23.60923
1555570895.32559,-27.84171
1555570895.34122,-31.39358
1555570895.35684,-33.8339
1555570895.37247,-34.75282
1555570895.38809,-33.77377
1555570895.40372,-30.65243
1555570895.41935,-25.39082
1555570895.43497,-18.30735
1555570895.4506,-10.04521
1555570895.46622,-1.389318
1555570895.48185,6.861673
1555570895.49747,14.08431
1555570895.5131,19.88647
1555570895.52873,24.09253
1555570895.54435,26.70238
1555570895.55998,27.81461
1555570895.5756,27.59166
1555570895.59123,26.2409
1555570895.60685,23.98798
1555570895.62248,21.00277
1555570895.63811,17.43629
1555570895.65373,13.40494
1555570895.66936,9.097048
1555570895.68498,4.835404
1555570895.70061,1.102352
1555570895.71623,-1.533831
1555570895.73186,-2.644071
1555570895.74749,-2.066404
1555570895.76311,-0.09370136
1555570895.77874,2.623999
1555570895.79436,5.213817
1555570895.80999,6.931351
1555570895.82561,7.374074
1555570895.84124,6.584289
1555570895.85687,5.002272
1555570895.87249,3.210061
1555570895.88812,1.696771
1555570895.90374,0.6854572
1555570895.91937,0.08644772
1555570895.93499,-0.4029145
1555570895.95062,-1.119557
1555570895.96625,-2.340217
1555570895.98187,-4.194112
1555570895.9975,-6.662417
1555570896.01312,-9.64114
1555570896.02875,-12.96562
1555570896.04437,-16.46384
1555570896.06,-19.96127
1555570896.07563,-23.35958
1555570896.09125,-26.63202
1555570896.10688,-29.82865
1555570896.1225,-32.9802
1555570896.13813,-35.94433
1555570896.15376,-38.32619
1555570896.16938,-39.46667
1555570896.18501,-38.61967
1555570896.20063,-35.19569
1555570896.21626,-29.09336
1555570896.23188,-20.7694
1555570896.24751,-11.19818
1555570896.26314,-1.542837
1555570896.27876,7.141522
1555570896.29439,14.18684
1555570896.31001,19.40595
1555570896.32564,22.99374
1555570896.34126,25.34603
1555570896.35689,26.88491
1555570896.37252,27.91976
1555570896.38814,28.60993
1555570896.40377,28.9717
1555570896.41939,28.92506
1555570896.43502,28.37156
1555570896.45064,27.2915
1555570896.46627,25.76237
1555570896.4819,24.01432
1555570896.49752,22.32936
1555570896.51315,20.96997
1555570896.52877,20.05165
1555570896.5444,19.48811
1555570896.56002,18.99142
1555570896.57565,18.18562
1555570896.59128,16.73447
1555570896.6069,14.49801
1555570896.62253,11.59137
1555570896.63815,8.369418
1555570896.65378,5.284436
1555570896.6694,2.73503
1555570896.68503,0.9033546
1555570896.70066,-0.2535467
1555570896.71628,-0.9869509
1555570896.73191,-1.596913
1555570896.74753,-2.359597
1555570896.76316,-3.391834
1555570896.77878,-4.710968
1555570896.79441,-6.259161
1555570896.81004,-7.987776
1555570896.82566,-9.884987
1555570896.84129,-12.02295
1555570896.85691,-14.53356
1555570896.87254,-17.54926
1555570896.88816,-21.13249
1555570896.90379,-25.21513
1555570896.91942,-29.57194
1555570896.93504,-33.7564
1555570896.95067,-37.22866
1555570896.96629,-39.42448
1555570896.98192,-39.89699
1555570896.99754,-38.43656
1555570897.01317,-35.07308
1555570897.0288,-30.06072
1555570897.04442,-23.79663
1555570897.06005,-16.76928
1555570897.07567,-9.487223
1555570897.0913,-2.442703
1555570897.10692,3.898014
1555570897.12255,9.110714
1555570897.13818,12.87358
1555570897.1538,14.97671
1555570897.16943,15.42844
1555570897.18505,14.46747
1555570897.20068,12.52665
1555570897.2163,10.16543
1555570897.23193,7.939367
1555570897.24756,6.289669
1555570897.26318,5.429914
1555570897.27881,5.367315
1555570897.29443,5.915827
1555570897.31006,6.798273
1555570897.32568,7.754208
1555570897.34131,8.595787
1555570897.35694,9.244562
1555570897.37256,9.727711
1555570897.38819,10.0965
1555570897.40381,10.42315
1555570897.41944,10.73646
1555570897.43506,11.00835
1555570897.45069,11.17787
1555570897.46632,11.16319
1555570897.48194,10.89915
1555570897.49757,10.39302
1555570897.51319,9.684877
1555570897.52882,8.831049
1555570897.54444,7.838802
1555570897.56007,6.635044
1555570897.5757,5.069246
1555570897.59132,3.004938
1555570897.60695,0.3750591
1555570897.62257,-2.733099
1555570897.6382,-6.102123
1555570897.65382,-9.438009
1555570897.66945,-12.50257
1555570897.68508,-15.22102
1555570897.7007,-17.71708
1555570897.71633,-20.2731
1555570897.73195,-23.14997
1555570897.74758,-26.39865
1555570897.7632,-29.71441
1555570897.77883,-32.44444
1555570897.79446,-33.75666
1555570897.81008,-32.91077
1555570897.82571,-29.53491
1555570897.84133,-23.73613
1555570897.85696,-16.17417
1555570897.87258,-7.778549
1555570897.88821,0.4594383
1555570897.90384,7.730244
1555570897.91946,13.57985
1555570897.93509,17.87038
1555570897.95071,20.73616
1555570897.96634,22.45317
1555570897.98196,23.28754
1555570897.99759,23.44711
1555570898.01322,23.04712
1555570898.02884,22.13289
1555570898.04447,20.75773
1555570898.06009,19.05134
1555570898.07572,17.23023
1555570898.09134,15.54174
1555570898.10697,14.16925
1555570898.1226,13.15606
1555570898.13822,12.37715
1555570898.15385,11.61977
1555570898.16947,10.70483
1555570898.1851,9.534334
1555570898.20072,8.177427
1555570898.21635,6.751253
1555570898.23198,5.405388
1555570898.2476,4.221523
1555570898.26323,3.215881
1555570898.27885,2.381409
1555570898.29448,1.668633
1555570898.3101,1.03825
1555570898.32573,0.3820419
1555570898.34136,-0.4206696
1555570898.35698,-1.520758
1555570898.37261,-3.012291
1555570898.38823,-4.896717
1555570898.40386,-7.079971
1555570898.41949,-9.438633
1555570898.43511,-11.88721
1555570898.45074,-14.42749
1555570898.46636,-17.13673
1555570898.48199,-20.06654
1555570898.49761,-23.17113
1555570898.51324,-26.24445
1555570898.52887,-28.92221
1555570898.54449,-30.79775
1555570898.56012,-31.50618
1555570898.57574,-30.80614
1555570898.59137,-28.62099
1555570898.60699,-25.03905
1555570898.62262,-20.24075
1555570898.63825,-14.50122
1555570898.65387,-8.11689
1555570898.6695,-1.434807
1555570898.68512,5.165443
1555570898.70075,11.27704
1555570898.71637,16.5014
1555570898.732,20.53333
1555570898.74763,23.20313
1555570898.76325,24.52271
1555570898.77888,24.66221
1555570898.7945,23.8461
1555570898.81013,22.31932
1555570898.82575,20.32383
1555570898.84138,18.10917
1555570898.85701,15.96632
1555570898.87263,14.1384
1555570898.88826,12.80822
1555570898.90388,12.00447
1555570898.91951,11.6077
1555570898.93513,11.42583
1555570898.95076,11.2953
1555570898.96639,11.14517
1555570898.98201,10.94003
1555570898.99764,10.63276
1555570899.01326,10.05008
1555570899.02889,8.987766
1555570899.04451,7.315784
1555570899.06014,5.148472
1555570899.07577,2.835682
1555570899.09139,0.8355522
1555570899.10702,-0.5215454
1555570899.12264,-1.212387
1555570899.13827,-1.539875
1555570899.15389,-1.9589
1555570899.16952,-2.871704
1555570899.18515,-4.423203
1555570899.20077,-6.479038
1555570899.2164,-8.770161
1555570899.23202,-11.06539
1555570899.24765,-13.32853
1555570899.26327,-15.72126
1555570899.2789,-18.46783
1555570899.29453,-21.68185
1555570899.31015,-25.25553
1555570899.32578,-28.84563
1555570899.3414,-31.97068
1555570899.35703,-34.11572
1555570899.37265,-34.82758
1555570899.38828,-33.76915
1555570899.40391,-30.73328
1555570899.41953,-25.70901
1555570899.43516,-18.90788
1555570899.45078,-10.81222
1555570899.46641,-2.124035
1555570899.48203,6.359867
1555570899.49766,13.91872
1555570899.51329,20.07134
1555570899.52891,24.61933
1555570899.54454,27.6144
1555570899.56016,29.25314
1555570899.57579,29.75753
1555570899.59141,29.31751
1555570899.60704,28.08792
1555570899.62267,26.24696
1555570899.63829,23.98267
1555570899.65392,21.54169
1555570899.66954,19.13855
1555570899.68517,16.95929
1555570899.70079,15.08312
1555570899.71642,13.50251
1555570899.73205,12.15457
1555570899.74767,10.97841
1555570899.7633,9.969193
1555570899.77892,9.165474
1555570899.79455,8.613773
1555570899.81017,8.307972
1555570899.8258,8.185154
1555570899.84143,8.144997
1555570899.85705,8.11652
1555570899.87268,8.054436
1555570899.8883,7.952213
1555570899.90393,7.775444
1555570899.91955,7.422092
1555570899.93518,6.775135
1555570899.95081,5.747101
1555570899.96643,4.337044
1555570899.98206,2.656654
1555570899.99768,0.858078
1555570900.01331,-0.9092484
1555570900.02893,-2.606926
1555570900.04456,-4.297791
1555570900.06019,-6.156967
1555570900.07581,-8.431767
1555570900.09144,-11.35477
1555570900.10706,-15.10831
1555570900.12269,-19.64647
1555570900.13831,-24.65704
1555570900.15394,-29.52931
1555570900.16957,-33.44703
1555570900.18519,-35.60047
1555570900.20082,-35.41323
1555570900.21644,-32.73059
1555570900.23207,-27.8553
1555570900.24769,-21.46361
1555570900.26332,-14.39421
1555570900.27895,-7.47504
1555570900.29457,-1.364048
1555570900.3102,3.492207
1555570900.32582,6.910023
1555570900.34145,8.914711
1555570900.35707,9.703003
1555570900.3727,9.573887
1555570900.38833,8.859871
1555570900.40395,7.896309
1555570900.41958,6.976654
1555570900.4352,6.345043
1555570900.45083,6.16703
1555570900.46645,6.524696
1555570900.48208,7.36335
1555570900.49771,8.483086
1555570900.51333,9.631325
1555570900.52896,10.52374
1555570900.54458,10.94401
1555570900.56021,10.74944
1555570900.57583,9.923019
1555570900.59146,8.569244
1555570900.60709,6.866272
1555570900.62271,5.07666
1555570900.63834,3.458649
1555570900.65396,2.213028
1555570900.66959,1.387756
1555570900.68522,0.8936768
1555570900.70084,0.4884567
1555570900.71647,-0.088974
1555570900.73209,-1.040924
1555570900.74772,-2.397881
1555570900.76334,-4.050385
1555570900.77897,-5.808655
1555570900.7946,-7.45491
1555570900.81022,-8.907013
1555570900.82585,-10.15462
1555570900.84147,-11.33678
1555570900.8571,-12.68467
1555570900.87272,-14.48315
1555570900.88835,-16.9539
1555570900.90398,-20.12571
1555570900.9196,-23.73317
1555570900.93523,-27.17145
1555570900.95085,-29.65614
1555570900.96648,-30.44475
1555570900.9821,-29.13819
1555570900.99773,-25.80485
1555570901.01336,-20.99708
1555570901.02898,-15.50069
1555570901.04461,-10.07441
1555570901.06023,-5.224861
1555570901.07586,-1.115837
1555570901.09148,2.317032
1555570901.10711,5.204208
1555570901.12274,7.586731
1555570901.13836,9.37767
1555570901.15399,10.42789
1555570901.16961,10.64652
1555570901.18524,10.1225
1555570901.20086,9.098392
1555570901.21649,7.92424
1555570901.23212,6.911339
1555570901.24774,6.282635
1555570901.26337,6.1521
1555570901.27899,6.560955
1555570901.29462,7.536339
1555570901.31024,9.017609
1555570901.32587,10.8658
1555570901.3415,12.76644
1555570901.35712,14.32277
1555570901.37275,15.13143
1555570901.38837,14.95327
1555570901.404,13.77232
1555570901.41962,11.81575
1555570901.43525,9.428349
1555570901.45088,6.939056
1555570901.4665,4.565266
1555570901.48213,2.365635
1555570901.49775,0.252861
1555570901.51338,-1.915668
1555570901.529,-4.242981
1555570901.54463,-6.740852
1555570901.56026,-9.349842
1555570901.57588,-11.94492
1555570901.59151,-14.46719
1555570901.60713,-16.97227
1555570901.63838,-22.56823
1555570901.62276,-19.62049
1555570901.65401,-25.81022
1555570901.66964,-29.09871
1555570901.68526,-31.92459
1555570901.70089,-33.64786
1555570901.71651,-33.66914
1555570901.73214,-31.575
1555570901.74776,-27.25245
1555570901.76339,-20.89423
1555570901.77902,-12.98021
1555570901.79464,-4.198154
1555570901.81027,4.667377
1555570901.82589,12.85318
1555570901.84152,19.72325
1555570901.85714,24.85175
1555570901.87277,28.03305
1555570901.8884,29.30236
1555570901.90402,28.86243
1555570901.91965,27.07438
1555570901.93527,24.40268
1555570901.9509,21.40512
1555570901.96652,18.64885
1555570901.98215,16.66851
1555570901.99778,15.80477
1555570902.0134,16.15218
1555570902.02903,17.5047
1555570902.04465,19.4513
1555570902.06028,21.47831
1555570902.0759,23.13317
1555570902.09153,24.10329
1555570902.10716,24.23413
1555570902.12278,23.51416
1555570902.13841,21.97622
1555570902.15403,19.69661
1555570902.16966,16.75532
1555570902.18528,13.24599
1555570902.20091,9.297424
1555570902.21654,5.083763
1555570902.23216,0.8227444
1555570902.24779,-3.245319
1555570902.26341,-6.893038
1555570902.27904,-9.958078
1555570902.29466,-12.3963
1555570902.31029,-14.31216
1555570902.32592,-15.92922
1555570902.34154,-17.49292
1555570902.35717,-19.15313
1555570902.37279,-20.95466
1555570902.38842,-22.83028
1555570902.40404,-24.70476
1555570902.41967,-26.51988
1555570902.4353,-28.20357
1555570902.45092,-29.59076
1555570902.46655,-30.38481
1555570902.48217,-30.1698
1555570902.4978,-28.57977
1555570902.51342,-25.47614
1555570902.52905,-21.0404
1555570902.54468,-15.76528
1555570902.5603,-10.30639
1555570902.57593,-5.232801
1555570902.59155,-0.8736725
1555570902.60718,2.723127
1555570902.6228,5.744556
1555570902.63843,8.446144
1555570902.65406,11.01051
1555570902.66968,13.49053
1555570902.68531,15.78397
1555570902.70093,17.6967
1555570902.71656,18.99253
1555570902.73218,19.46855
1555570902.74781,19.06483
1555570902.76344,17.89221
1555570902.77906,16.31442
1555570902.79469,14.82617
1555570902.81031,13.93616
1555570902.82594,13.96745
1555570902.84156,14.88843
1555570902.85719,16.33094
1555570902.87282,17.67167
1555570902.88844,18.27409
1555570902.90407,17.70732
1555570902.91969,15.89293
1555570902.93532,13.10005
1555570902.95094,9.797755
1555570902.96657,6.443248
1555570902.9822,3.310219
1555570902.99782,0.4575748
1555570903.01345,-2.21596
1555570903.02907,-4.8614
1555570903.0447,-7.557584
1555570903.06032,-10.28594
1555570903.07595,-12.94782
1555570903.09158,-15.42545
1555570903.1072,-17.61242
1555570903.12283,-19.44334
1555570903.13845,-20.86414
1555570903.15408,-21.899
1555570903.1697,-22.6893
1555570903.18533,-23.4955
1555570903.20096,-24.62187
1555570903.21658,-26.28089
1555570903.23221,-28.35967
1555570903.24783,-30.36896
1555570903.26346,-31.52325
1555570903.27909,-30.99793
1555570903.29471,-28.26971
1555570903.31034,-23.30047
1555570903.32596,-16.56903
1555570903.34159,-8.850872
1555570903.35721,-1.016773
1555570903.37284,6.240655
1555570903.38847,12.44892
1555570903.40409,17.3211
1555570903.41972,20.6987
1555570903.43534,22.52959
1555570903.45097,22.86487
1555570903.46659,21.90812
1555570903.48222,20.02654
1555570903.49785,17.68213
1555570903.51347,15.405
1555570903.5291,13.67858
1555570903.54472,12.8577
1555570903.56035,13.0634
1555570903.57597,14.162
1555570903.5916,15.75274
1555570903.60723,17.31157
1555570903.62285,18.36472
1555570903.63848,18.65312
1555570903.6541,18.21917
1555570903.66973,17.33691
1555570903.68535,16.34413
1555570903.70098,15.45348
1555570903.71661,14.65605
1555570903.73223,13.75087
1555570903.74786,12.46698
1555570903.76348,10.64512
1555570903.77911,8.290233
1555570903.79473,5.595346
1555570903.81036,2.807723
1555570903.82599,0.1674881
1555570903.84161,-2.195105
1555570903.85724,-4.241511
1555570903.87286,-5.993547
1555570903.88849,-7.47616
1555570903.90411,-8.676847
1555570903.91974,-9.640811
1555570903.93537,-10.46071
1555570903.95099,-11.32511
1555570903.96662,-12.4492
1555570903.98224,-13.93752
1555570903.99787,-15.67332
1555570904.01349,-17.22943
1555570904.02912,-17.93038
1555570904.04475,-17.01327
1555570904.06037,-13.8466
1555570904.076,-8.169083
1555570904.09162,-0.1987114
1555570904.10725,9.441352
1555570904.12287,19.85271
1555570904.1385,30.07792
1555570904.15413,39.30265
1555570904.16975,46.98276
1555570904.18538,52.8427
1555570904.201,56.80648
1555570904.21663,58.88747
1555570904.23225,59.09237
1555570904.24788,57.48174
1555570904.26351,54.18729
1555570904.27913,49.48181
1555570904.29476,43.75861
1555570904.31038,37.39356
1555570904.32601,30.64831
1555570904.34163,23.59356
1555570904.35726,16.21532
1555570904.37289,8.536447
1555570904.38851,0.7752934
1555570904.40414,-6.659527
1555570904.41976,-13.2598
1555570904.43539,-18.64977
1555570904.45101,-22.71682
1555570904.46664,-25.65086
1555570904.48227,-27.82712
1555570904.49789,-29.60454
1555570904.51352,-31.14964
1555570904.52914,-32.4136
1555570904.54477,-33.19422
1555570904.56039,-33.30305
1555570904.57602,-32.65504
1555570904.59165,-31.346
1555570904.60727,-29.59231
1555570904.6229,-27.64088
1555570904.63852,-25.68909
1555570904.65415,-23.83276
1555570904.66977,-22.08664
1555570904.6854,-20.42427
1555570904.70103,-18.82976
1555570904.71665,-17.31442
1555570904.73228,-15.91148
1555570904.7479,-14.63085
1555570904.76353,-13.45391
1555570904.77915,-12.32344
1555570904.79478,-11.19483
1555570904.81041,-10.04608
1555570904.82603,-8.895016
1555570904.84166,-7.796837
1555570904.85728,-6.801022
1555570904.87291,-5.956512
1555570904.88853,-5.267799
1555570904.90416,-4.713043
1555570904.91979,-4.235481
1555570904.93541,-3.792675
1555570904.95104,-3.338802
1555570904.96666,-2.858765
1555570904.98229,-2.364315
1555570904.99791,-1.891373
1555570905.01354,-1.471313
1555570905.02917,-1.130634
1555570905.04479,-0.8707237
1555570905.06042,-0.6706619
1555570905.07604,-0.5097885
1555570905.09167,-0.3597374
1555570905.10729,-0.2087479
1555570905.12292,-0.05745316
1555570905.13855,0.08316803
1555570905.15417,0.1980782
1555570905.1698,0.2793427
1555570905.18542,0.3267975
1555570905.20105,0.3460045
1555570905.21667,0.3470154
1555570905.2323,0.3411751
1555570905.24793,0.336628
1555570905.26355,0.3352242
1555570905.27918,0.3366623
1555570905.2948,0.3380241
1555570905.31043,0.335865
1555570905.32605,0.3278923
1555570905.34168,0.3146553
1555570905.35731,0.2959137
1555570905.37293,0.2766418
1555570905.38856,0.2572784
1555570905.40418,0.2429886
1555570905.41981,0.2318649
1555570905.43544,0.2260361
1555570905.45106,0.2234993
1555570905.46669,0.2213058
1555570905.48231,0.2183647
1555570905.49794,0.2146416
1555570905.51356,0.2108688
1555570905.52919,0.2061577
1555570905.54482,0.2009048
1555570905.56044,0.1974258
1555570905.57607,0.196228
1555570905.59169,0.1940269
1555570905.60732,0.1943626
1555570905.62294,0.1931534
1555570905.63857,0.1928444
1555570905.6542,0.1919632
1555570905.66982,0.1922951
1555570905.68545,0.1909752
1555570905.70107,0.1902428
1555570905.7167,0.1895943
1555570905.73232,0.1881752
1555570905.74795,0.187645
1555570905.76358,0.1864624
1555570905.7792,0.1862068
1555570905.79483,0.1843491
1555570905.81045,0.1846161
1555570905.82608,0.1836395
1555570905.8417,0.1835938
1555570905.85733,0.1827469
1555570905.87296,0.1815834
1555570905.88858,0.1809959
1555570905.90421,0.181282
1555570905.91983,0.1806297
1555570905.93546,0.178791
1555570905.95108,0.1786842
1555570905.96671,0.1780128
1555570905.98234,0.1770973
1555570905.99796,0.1761398
1555570906.01359,0.1762352
1555570906.02921,0.1755371
1555570906.04484,0.1753044
1555570906.06046,0.1737976
1555570906.07609,0.1727676
1555570906.09172,0.1731071
1555570906.10734,0.1717606
1555570906.12297,0.1712341
1555570906.13859,0.1703377
1555570906.15422,0.1695633
1555570906.16984,0.1694145
1555570906.18547,0.1689758
1555570906.2011,0.1680717
1555570906.21672,0.1664085
1555570906.23235,0.1665764
1555570906.24797,0.165226
1555570906.2636,0.1650505
1555570906.27922,0.1652565
1555570906.29485,0.1640511
1555570906.31048,0.1622124
1555570906.3261,0.1622925
1555570906.34173,0.1616173
1555570906.35735,0.1614494
1555570906.37298,0.1610947
1555570906.3886,0.1602135
1555570906.40423,0.1600571
1555570906.41986,0.1590195
1555570906.43548,0.158432
1555570906.45111,0.1570549
1555570906.46673,0.1570282
1555570906.48236,0.1569519
1555570906.49798,0.1551857
1555570906.51361,0.1557083
1555570906.52924,0.1541519
1555570906.54486,0.1539536
1555570906.56049,0.1532288
1555570906.57611,0.1522293
1555570906.59174,0.1517448
1555570906.60736,0.1515198
1555570906.62299,0.1511536
1555570906.63862,0.1504478
1555570906.65424,0.1496201
1555570906.66987,0.149395
1555570906.68549,0.1488533
1555570906.70112,0.147934
1555570906.71674,0.1470833
1555570906.73237,0.1473122
1555570906.748,0.1459579
1555570906.76362,0.1455078
1555570906.77925,0.1450233
1555570906.79487,0.1442947
1555570906.8105,0.143364
1555570906.82612,0.1436653
1555570906.84175,0.1419144
1555570906.85738,0.1421165
1555570906.873,0.1419258
1555570906.88863,0.1412582
1555570906.90425,0.1412334
1555570906.91988,0.140398
1555570906.9355,0.140213
1555570906.95113,0.1390114
1555570906.96676,0.1385345
1555570906.98238,0.1389885
1555570906.99801,0.1373749
1555570907.01363,0.1375732
1555570907.02926,0.1367645
1555570907.04488,0.1359978
1555570907.06051,0.1357746
1555570907.07614,0.1347713
1555570907.09176,0.1349583
1555570907.10739,0.1338043
1555570907.12301,0.1333599
1555570907.13864,0.1333084
1555570907.15426,0.1321869
1555570907.16989,0.1312466
1555570907.18552,0.1307716
1555570907.20114,0.1299076
1555570907.21677,0.1306381
1555570907.23239,0.1290131
1555570907.24802,0.1287441
1555570907.26364,0.1279736
1555570907.27927,0.1275005
1555570907.2949,0.1277409
1555570907.31052,0.1275368
1555570907.32615,0.1256084
1555570907.34177,0.1264782
1555570907.3574,0.1257458
1555570907.37302,0.1247425
1555570907.38865,0.1246319
1555570907.40428,0.1246986
1555570907.4199,0.1232052
1555570907.43553,0.123436
1555570907.45115,0.1230125
1555570907.46678,0.1216965
1555570907.4824,0.1215153
1555570907.49803,0.1209297
1555570907.51366,0.1209011
1555570907.52928,0.120348
1555570907.54491,0.1197567
1555570907.56053,0.1193237
1555570907.57616,0.1182861
1555570907.59178,0.1185074
1555570907.60741,0.117815
1555570907.62304,0.1178532
1555570907.63866,0.1172867
1555570907.65429,0.116291
1555570907.66991,0.1161499
1555570907.68554,0.116333
1555570907.70116,0.1149044
1555570907.71679,0.1151142
1555570907.73242,0.1145115
1555570907.74804,0.1139774
1555570907.76367,0.1135883
1555570907.77929,0.1136513
1555570907.79492,0.1125641
1555570907.81054,0.1126862
1555570907.82617,0.1118011
1555570907.8418,0.1110992
1555570907.85742,0.1103592
1555570907.87305,0.1108608
1555570907.88867,0.1101532
1555570907.9043,0.110033
1555570907.91992,0.1100788
1555570907.93555,0.1086159
1555570907.95118,0.107872
1555570907.9668,0.1069698
1555570907.98243,0.107151
1555570907.99805,0.1073208
1555570908.01368,0.1092091
1555570908.0293,0.1117401
1555570908.04493,0.1124229
1555570908.06056,0.1073208
1555570908.07618,0.09354019
1555570908.09181,0.07214546
1555570908.10743,0.04204559
1555570908.12306,0.008771896
1555570908.13869,-0.02385521
1555570908.15431,-0.04847717
1555570908.16994,-0.06660843
1555570908.18556,-0.07926559
1555570908.20119,-0.09174728
1555570908.21681,-0.1083336
1555570908.23244,-0.1318092
1555570908.24807,-0.1623554
1555570908.26369,-0.1924915
1555570908.27932,-0.2173729
1555570908.29494,-0.2320862
1555570908.31057,-0.2391338
1555570908.32619,-0.2428284
1555570908.34182,-0.2562904
1555570908.35745,-0.2883606
1555570908.37307,-0.3429203
1555570908.3887,-0.4154377
1555570908.40432,-0.4921303
1555570908.41995,-0.5570908
1555570908.43557,-0.5982399
1555570908.4512,-0.6207371
1555570908.46683,-0.6390171
1555570908.48245,-0.6813755
1555570908.49808,-0.7704124
1555570908.5137,-0.9184418
1555570908.52933,-1.113422
1555570908.54495,-1.322189
1555570908.56058,-1.503288
1555570908.57621,-1.629421
1555570908.59183,-1.701982
1555570908.60746,-1.753675
1555570908.62308,-1.841875
1555570908.63871,-2.020658
1555570908.65433,-2.316032
1555570908.66996,-2.706936
1555570908.68559,-3.130754
1555570908.70121,-3.510321
1555570908.71684,-3.790464
1555570908.73246,-3.970329
1555570908.74809,-4.104319
1555570908.76371,-4.287673
1555570908.77934,-4.610137
1555570908.79497,-5.110907
1555570908.81059,-5.750558
1555570908.82622,-6.440125
1555570908.84184,-7.057882
1555570908.85747,-7.520665
1555570908.87309,-7.815531
1555570908.88872,-7.996409
1555570908.90435,-8.170424
1555570908.91997,-8.455613
1555570908.9356,-8.950395
1555570908.95122,-9.722675
1555570908.96685,-10.74805
1555570908.98247,-11.88923
1555570908.9981,-12.86406
1555570909.01373,-13.25882
1555570909.02935,-12.61414
1555570909.04498,-10.59527
1555570909.0606,-7.148645
1555570909.07623,-2.567936
1555570909.09185,2.565618
1555570909.10748,7.553567
1555570909.12311,11.81249
1555570909.13873,15.02594
1555570909.15436,17.15102
1555570909.16998,18.33512
1555570909.18561,18.77441
1555570909.20123,18.6128
1555570909.21686,17.91693
1555570909.23249,16.72648
1555570909.24811,15.15278
1555570909.26374,13.3753
1555570909.27936,11.65286
1555570909.29499,10.18837
1555570909.31061,9.073867
1555570909.32624,8.225443
1555570909.34187,7.479053
1555570909.35749,6.680766
1555570909.37312,5.780452
1555570909.38874,4.867295
1555570909.40437,4.074875
1555570909.41999,3.49837
1555570909.43562,3.087173
1555570909.45125,2.654577
1555570909.46687,1.994882
1555570909.4825,0.9720125
1555570909.49812,-0.3902473
1555570909.51375,-1.972293
1555570909.52937,-3.593896
1555570909.545,-5.182171
1555570909.56063,-6.761777
1555570909.57625,-8.437943
1555570909.59188,-10.28986
1555570909.6075,-12.31433
1555570909.62313,-14.33766
1555570909.63875,-16.05131
1555570909.65438,-17.05986
1555570909.67001,-16.94836
1555570909.68563,-15.41698
1555570909.70126,-12.35558
1555570909.71688,-7.887185
1555570909.73251,-2.414256
1555570909.74813,3.543224
1555570909.76376,9.355871
1555570909.77939,14.46854
1555570909.79501,18.44249
1555570909.81064,21.02858
1555570909.82626,22.17507
1555570909.84189,22.005
1555570909.85751,20.76337
1555570909.87314,18.74482
1555570909.88877,16.20059
1555570909.90439,13.27922
1555570909.92002,10.0748
1555570909.93564,6.684732
1555570909.95127,3.290764
1555570909.96689,0.1815863
1555570909.98252,-2.311229
1555570909.99815,-3.947372
1555570910.01377,-4.700689
1555570910.0294,-4.71472
1555570910.04502,-4.299662
1555570910.06065,-3.7362
1555570910.07627,-3.293171
1555570910.0919,-3.184795
1555570910.10753,-3.644806
1555570910.12315,-4.959272
1555570910.13878,-7.365026
1555570910.1544,-10.97784
1555570910.17003,-15.66418
1555570910.18565,-21.08534
1555570910.20128,-26.75738
1555570910.21691,-32.23277
1555570910.23253,-37.20086
1555570910.24816,-41.52242
1555570910.26378,-45.16948
1555570910.27941,-48.13582
1555570910.29504,-50.3418
1555570910.31066,-51.57774
1555570910.32629,-51.51862
1555570910.34191,-49.78121
1555570910.35754,-46.01246
1555570910.37316,-39.98542
1555570910.38879,-31.6815
1555570910.40442,-21.35822
1555570910.42004,-9.540588
1555570910.43567,3.054001
1555570910.45129,15.60295
1555570910.46692,27.32573
1555570910.48254,37.6248
1555570910.49817,46.1619
1555570910.5138,52.8433
1555570910.52942,57.77013
1555570910.54505,61.11119
1555570910.56067,63.00452
1555570910.5763,63.48981
1555570910.59192,62.60941
1555570910.60755,60.48723
1555570910.62318,57.37618
1555570910.65443,49.9323
1555570910.6388,53.69797
1555570910.67005,46.49808
1555570910.68568,43.62598
1555570910.7013,41.3455
1555570910.71693,39.52189
1555570910.73256,37.93827
1555570910.74818,36.41485
1555570910.76381,34.82921
1555570910.77943,33.11455
1555570910.79506,31.2178
1555570910.81068,29.06506
1555570910.82631,26.57595
1555570910.84194,23.68815
1555570910.85756,20.4019
1555570910.87319,16.78083
1555570910.88881,12.95098
1555570910.90444,9.061581
1555570910.92006,5.253674
1555570910.93569,1.624355
1555570910.95132,-1.764828
1555570910.96694,-4.907888
1555570910.98257,-7.823065
1555570910.99819,-10.56078
1555570911.01382,-13.19738
1555570911.02944,-15.81153
1555570911.04507,-18.42062
1555570911.0607,-20.91573
1555570911.07632,-23.067
1555570911.09195,-24.56438
1555570911.10757,-25.11466
1555570911.1232,-24.51954
1555570911.13882,-22.73794
1555570911.15445,-19.8741
1555570911.17008,-16.11243
1555570911.1857,-11.73017
1555570911.20133,-7.034019
1555570911.21695,-2.359599
1555570911.23258,1.94738
1555570911.2482,5.611993
1555570911.26383,8.463928
1555570911.27946,10.47063
1555570911.29508,11.72498
1555570911.31071,12.3727
1555570911.32633,12.56323
1555570911.34196,12.39577
1555570911.35758,11.94081
1555570911.37321,11.28151
1555570911.38884,10.54618
1555570911.40446,9.886692
1555570911.42009,9.486874
1555570911.43571,9.488934
1555570911.45134,9.937222
1555570911.46696,10.80423
1555570911.48259,11.9722
1555570911.49822,13.28394
1555570911.51384,14.55328
1555570911.52947,15.58303
1555570911.54509,16.15357
1555570911.56072,16.03424
1555570911.57634,15.03277
1555570911.59197,13.03288
1555570911.6076,10.11183
1555570911.62322,6.547829
1555570911.63885,2.796799
1555570911.65447,-0.657341
1555570911.6701,-3.419159
1555570911.68572,-5.342865
1555570911.70135,-6.543129
1555570911.71698,-7.296234
1555570911.7326,-7.947296
1555570911.74823,-8.744377
1555570911.76385,-9.807602
1555570911.77948,-11.1319
1555570911.7951,-12.66745
1555570911.81073,-14.36202
1555570911.82636,-16.19182
1555570911.84198,-18.14273
1555570911.85761,-20.17623
1555570911.87323,-22.17572
1555570911.88886,-23.90504
1555570911.90448,-25.07362
1555570911.92011,-25.34304
1555570911.93574,-24.45133
1555570911.95136,-22.25709
1555570911.96699,-18.83372
1555570911.98261,-14.47913
1555570911.99824,-9.650116
1555570912.01386,-4.887917
1555570912.02949,-0.6715393
1555570912.04512,2.672173
1555570912.06074,5.056152
1555570912.07637,6.598877
1555570912.09199,7.574203
1555570912.10762,8.29361
1555570912.12324,9.021744
1555570912.13887,9.900711
1555570912.1545,10.92702
1555570912.17012,12.01309
1555570912.18575,13.02382
1555570912.20137,13.87054
1555570912.217,14.52563
1555570912.23262,15.01184
1555570912.24825,15.34837
1555570912.26388,15.51402
1555570912.2795,15.42569
1555570912.29513,14.96278
1555570912.31075,14.01073
1555570912.32638,12.55319
1555570912.342,10.66124
1555570912.35763,8.492188
1555570912.37326,6.203674
1555570912.38888,3.914215
1555570912.40451,1.652557
1555570912.42013,-0.5882874
1555570912.43576,-2.78093
1555570912.45138,-4.83316
1555570912.46701,-6.594025
1555570912.48264,-7.973831
1555570912.49826,-9.042007
1555570912.51389,-10.05333
1555570912.52951,-11.36322
1555570912.54514,-13.25458
1555570912.56077,-15.73938
1555570912.57639,-18.53435
1555570912.59202,-21.1707
1555570912.60764,-23.17764
1555570912.62327,-24.34639
1555570912.63889,-24.75572
1555570912.65452,-24.73712
1555570912.67015,-24.71196
1555570912.68577,-25.00285
1555570912.7014,-25.74052
1555570912.71702,-26.7881
1555570912.73265,-27.83755
1555570912.74827,-28.44424
1555570912.7639,-28.19769
1555570912.77953,-26.81441
1555570912.79515,-24.19632
1555570912.81078,-20.46252
1555570912.8264,-15.92801
1555570912.84203,-10.97766
1555570912.85765,-6.018768
1555570912.87328,-1.416794
1555570912.88891,2.546844
1555570912.90453,5.679443
1555570912.92016,7.901489
1555570912.93578,9.285294
1555570912.95141,9.999496
1555570912.96703,10.25351
1555570912.98266,10.19145
1555570912.99829,9.872803
1555570913.01391,9.272385
1555570913.02954,8.394226
1555570913.04516,7.329926
1555570913.06079,6.268417
1555570913.07641,5.421677
1555570913.09204,4.887894
1555570913.10767,4.616928
1555570913.12329,4.43425
1555570913.13892,4.153564
1555570913.15454,3.719788
1555570913.17017,3.19931
1555570913.18579,2.734512
1555570913.20142,2.396149
1555570913.21705,2.12735
1555570913.23267,1.723969
1555570913.2483,1.00293
1555570913.26392,-0.1273193
1555570913.27955,-1.577942
1555570913.29517,-3.109589
1555570913.3108,-4.458008
1555570913.32643,-5.477325
1555570913.34205,-6.179077
1555570913.35768,-6.707367
1555570913.3733,-7.27063
1555570913.38893,-8.037659
1555570913.40455,-9.084839
1555570913.42018,-10.40601
1555570913.43581,-11.93506
1555570913.45143,-13.60309
1555570913.46706,-15.35168
1555570913.48268,-17.16098
1555570913.49831,-19.00119
1555570913.51393,-20.82913
1555570913.52956,-22.55948
1555570913.54519,-24.09088
1555570913.56081,-25.306
1555570913.57644,-26.1152
1555570913.59206,-26.4404
1555570913.60769,-26.19275
1555570913.62331,-25.23749
1555570913.63894,-23.41473
1555570913.65457,-20.59427
1555570913.67019,-16.78812
1555570913.68582,-12.23297
1555570913.70144,-7.363953
1555570913.71707,-2.733032
1555570913.73269,1.152985
1555570913.74832,4.022034
1555570913.76395,5.831787
1555570913.77957,6.747681
1555570913.7952,7.009705
1555570913.81082,6.820068
1555570913.82645,6.291656
1555570913.84207,5.51236
1555570913.8577,4.620941
1555570913.87333,3.820587
1555570913.88895,3.337921
1555570913.90458,3.316406
1555570913.9202,3.75235
1555570913.93583,4.47879
1555570913.95145,5.243225
1555570913.96708,5.843384
1555570913.98271,6.157745
1555570913.99833,6.180359
1555570914.01396,5.937225
1555570914.02958,5.464172
1555570914.04521,4.781281
1555570914.06083,3.926453
1555570914.07646,2.970978
1555570914.09209,2.020813
1555570914.10771,1.148102
1555570914.12334,0.3727417
1555570914.13896,-0.3523102
1555570914.15459,-1.116821
1555570914.17021,-1.983856
1555570914.18584,-2.972427
1555570914.20147,-4.068497
1555570914.21709,-5.234131
1555570914.23272,-6.439026
1555570914.24834,-7.668533
1555570914.26397,-8.903427
1555570914.27959,-10.15689
1555570914.29522,-11.47067
1555570914.31085,-12.91267
1555570914.32647,-14.51503
1555570914.3421,-16.2231
1555570914.35772,-17.84935
1555570914.37335,-19.06163
1555570914.38897,-19.51007
1555570914.4046,-18.89111
1555570914.42023,-17.01965
1555570914.43585,-13.87276
1555570914.45148,-9.603546
1555570914.4671,-4.569763
1555570914.48273,0.6867828
1555570914.49835,5.511612
1555570914.51398,9.318268
1555570914.52961,11.75261
1555570914.54523,12.84204
1555570914.56086,12.95781
1555570914.57648,12.65555
1555570914.59211,12.48085
1555570914.60773,12.78171
1555570914.62336,13.67058
1555570914.63899,15.06952
1555570914.65461,16.78532
1555570914.67024,18.54359
1555570914.68586,20.04945
1555570914.70149,21.03842
1555570914.71711,21.32443
1555570914.73274,20.92937
1555570914.74837,20.05869
1555570914.76399,19.02017
1555570914.77962,18.06293
1555570914.79524,17.25266
1555570914.81087,16.4071
1555570914.82649,15.21028
1555570914.84212,13.34775
1555570914.85775,10.66104
1555570914.87337,7.219376
1555570914.889,3.309464
1555570914.90462,-0.6970825
1555570914.92025,-4.443558
1555570914.93587,-7.68103
1555570914.9515,-10.31914
1555570914.96713,-12.36391
1555570914.98275,-13.8765
1555570914.99838,-14.87242
1555570915.014,-15.34421
1555570915.02963,-15.26285
1555570915.04525,-14.69479
1555570915.06088,-13.82556
1555570915.07651,-12.94797
1555570915.09213,-12.34077
1555570915.10776,-12.1521
1555570915.12338,-12.33199
1555570915.13901,-12.64142
1555570915.15463,-12.77394
1555570915.17026,-12.50752
1555570915.18589,-11.77316
1555570915.20151,-10.6282
1555570915.21714,-9.224869
1555570915.23276,-7.664978
1555570915.24839,-5.977615
1555570915.26402,-4.173233
1555570915.27964,-2.254456
1555570915.29527,-0.2997131
1555570915.31089,1.562759
1555570915.32652,3.179825
1555570915.34214,4.452148
1555570915.35777,5.30217
1555570915.3734,5.723465
1555570915.38902,5.713104
1555570915.40465,5.281219
1555570915.42027,4.475861
1555570915.4359,3.397614
1555570915.45152,2.296555
1555570915.46715,1.479477
1555570915.48278,1.289658
1555570915.4984,1.94989
1555570915.51403,3.470184
1555570915.52965,5.611145
1555570915.54528,7.898865
1555570915.5609,9.787888
1555570915.57653,10.77826
1555570915.59216,10.56827
1555570915.60778,9.101059
1555570915.62341,6.595276
1555570915.63903,3.447342
1555570915.65466,0.177002
1555570915.67028,-2.700378
1555570915.68591,-4.79715
1555570915.70154,-5.936508
1555570915.71716,-6.196762
1555570915.73279,-5.902039
1555570915.74841,-5.476013
1555570915.76404,-5.342667
1555570915.77966,-5.785904
1555570915.79529,-6.889786
1555570915.81092,-8.580841
1555570915.82654,-10.68248
1555570915.84217,-12.99869
1555570915.85779,-15.35678
1555570915.87342,-17.56984
1555570915.88904,-19.37212
1555570915.90467,-20.41299
1555570915.9203,-20.29057
1555570915.93592,-18.66444
1555570915.95155,-15.41957
1555570915.96717,-10.75546
1555570915.9828,-5.19397
1555570915.99842,0.5256958
1555570916.01405,5.676971
1555570916.02968,9.739792
1555570916.0453,12.5601
1555570916.06093,14.34038
1555570916.07655,15.53085
1555570916.09218,16.61404
1555570916.1078,17.91191
1555570916.12343,19.48782
1555570916.13906,21.13788
1555570916.15468,22.4744
1555570916.17031,23.13193
1555570916.18593,22.868
1555570916.20156,21.65498
1555570916.21718,19.71606
1555570916.23281,17.41551
1555570916.24844,15.18784
1555570916.26406,13.47127
1555570916.27969,12.58949
1555570916.29531,12.72844
1555570916.31094,13.84035
1555570916.32656,15.65733
1555570916.34219,17.66745
1555570916.35782,19.27606
1555570916.37344,19.90639
1555570916.38907,19.19525
1555570916.40469,17.0937
1555570916.42032,13.87506
1555570916.43594,10.06303
1555570916.45157,6.284515
1555570916.4672,3.108795
1555570916.48282,0.8875122
1555570916.49845,-0.2819824
1555570916.51407,-0.6133423
1555570916.5297,-0.5429993
1555570916.54532,-0.6345825
1555570916.56095,-1.402863
1555570916.57658,-3.115204
1555570916.5922,-5.651367
1555570916.60783,-8.482117
1555570916.62345,-10.89159
1555570916.63908,-12.23543
1555570916.6547,-12.28708
1555570916.67033,-11.30673
1555570916.68596,-9.923157
1555570916.70158,-8.799088
1555570916.71721,-8.267426
1555570916.73283,-8.195496
1555570916.74846,-8.048019
1555570916.76408,-7.242233
1555570916.77971,-5.442337
1555570916.79534,-2.741074
1555570916.81096,0.4000092
1555570916.82659,3.335831
1555570916.84221,5.478973
1555570916.85784,6.402985
1555570916.87346,5.845657
1555570916.88909,3.674835
1555570916.90472,-0.1898193
1555570916.92034,-5.731567
1555570916.93597,-12.77023
1555570916.95159,-20.87976
1555570916.96722,-29.37047
1555570916.98284,-37.35046
1555570916.99847,-43.89906
1555570917.0141,-48.25668
1555570917.02972,-50.01143
1555570917.04535,-49.1998
1555570917.06097,-46.27371
1555570917.0766,-41.97754
1555570917.09222,-37.14655
1555570917.10785,-32.53265
1555570917.12348,-28.6481
1555570917.1391,-25.71472
1555570917.15473,-23.69698
1555570917.17035,-22.36577
1555570917.18598,-21.43384
1555570917.2016,-20.60114
1555570917.21723,-19.61705
1555570917.23286,-18.29677
1555570917.24848,-16.4704
1555570917.26411,-13.98315
1555570917.27973,-10.6925
1555570917.29536,-6.543762
1555570917.31098,-1.61496
1555570917.32661,3.854126
1555570917.34224,9.465332
1555570917.35786,14.70151
1555570917.37349,18.99544
1555570917.38911,21.86859
1555570917.40474,23.01543
1555570917.42037,22.4117
1555570917.43599,20.36639
1555570917.45162,17.48476
1555570917.46724,14.51102
1555570917.48287,12.13635
1555570917.49849,10.83002
1555570917.51412,10.76135
1555570917.52975,11.826
1555570917.54537,13.79705
1555570917.561,16.44761
1555570917.57662,19.60162
1555570917.59225,23.1249
1555570917.60787,26.81084
1555570917.6235,30.34583
1555570917.63913,33.29412
1555570917.65475,35.24315
1555570917.67038,35.89778
1555570917.686,35.173
1555570917.70163,33.20099
1555570917.71725,30.23804
1555570917.73288,26.54286
1555570917.74851,22.36878
1555570917.76413,17.94297
1555570917.77976,13.51301
1555570917.79538,9.337502
1555570917.81101,5.633308
1555570917.82663,2.511345
1555570917.84226,-0.04083252
1555570917.85789,-2.128807
1555570917.87351,-3.844444
1555570917.88914,-5.221176
1555570917.90476,-6.204132
1555570917.92039,-6.772118
1555570917.93601,-7.030121
1555570917.95164,-7.250587
1555570917.96727,-7.863892
1555570917.98289,-9.27932
1555570917.99852,-11.74591
1555570918.01414,-15.25246
1555570918.02977,-19.50543
1555570918.04539,-24.06349
1555570918.06102,-28.47027
1555570918.07665,-32.38513
1555570918.09227,-35.65263
1555570918.1079,-38.32065
1555570918.12352,-40.56466
1555570918.13915,-42.55657
1555570918.15477,-44.355
1555570918.1704,-45.77924
1555570918.18603,-46.41418
1555570918.20165,-45.6703
1555570918.21728,-42.96682
1555570918.2329,-37.9248
1555570918.24853,-30.52505
1555570918.26415,-21.17231
1555570918.27978,-10.62405
1555570918.29541,0.1825905
1555570918.31103,10.36865
1555570918.32666,19.28911
1555570918.34228,26.59525
1555570918.35791,32.20229
1555570918.37353,36.17447
1555570918.38916,38.63851
1555570918.40479,39.75361
1555570918.42041,39.72671
1555570918.43604,38.87136
1555570918.45166,37.58395
1555570918.46729,36.30333
1555570918.48291,35.36459
1555570918.49854,34.88068
1555570918.51417,34.70117
1555570918.52979,34.49649
1555570918.54542,33.90378
1555570918.56104,32.67951
1555570918.57667,30.77439
1555570918.59229,28.3208
1555570918.60792,25.50767
1555570918.62355,22.50019
1555570918.63917,19.35725
1555570918.6548,16.05889
1555570918.67042,12.54243
1555570918.68605,8.787199
1555570918.70167,4.839303
1555570918.7173,0.8413973
1555570918.73293,-3.023134
1555570918.74855,-6.591604
1555570918.76418,-9.734949
1555570918.7798,-12.44176
1555570918.79543,-14.81338
1555570918.81105,-17.06661
1555570918.82668,-19.46887
1555570918.84231,-22.23399
1555570918.85793,-25.46833
1555570918.87356,-29.13295
1555570918.88918,-33.03866
1555570918.90481,-36.90524
1555570918.92043,-40.4
1555570918.93606,-43.11555
1555570918.95169,-44.65247
1555570918.96731,-44.61662
1555570918.98294,-42.72026
1555570918.99856,-38.90424
1555570919.01419,-33.42461
1555570919.02981,-26.84449
1555570919.04544,-19.92516
1555570919.06107,-13.45416
1555570919.07669,-8.023491
1555570919.09232,-3.915318
1555570919.10794,-1.086597
1555570919.12357,0.7314301
1555570919.13919,1.858513
1555570919.15482,2.511703
1555570919.17045,2.779079
1555570919.18607,2.66156
1555570919.2017,2.211555
1555570919.21732,1.660027
1555570919.23295,1.371346
1555570919.24857,1.763794
1555570919.2642,3.142368
1555570919.27983,5.537296
1555570919.29545,8.762192
1555570919.31108,12.49288
1555570919.3267,16.40199
1555570919.34233,20.25179
1555570919.35795,23.89809
1555570919.37358,27.21197
1555570919.38921,30.07516
1555570919.40483,32.36345
1555570919.42046,34.00797
1555570919.43608,35.02752
1555570919.45171,35.51828
1555570919.46733,35.60265
1555570919.48296,35.33463
1555570919.49859,34.70682
1555570919.51421,33.6212
1555570919.52984,31.9586
1555570919.54546,29.62144
1555570919.56109,26.55719
1555570919.57671,22.7739
1555570919.59234,18.33968
1555570919.60797,13.35574
1555570919.62359,7.984039
1555570919.63922,2.439995
1555570919.65484,-2.978577
1555570919.67047,-7.884323
1555570919.6861,-11.8127
1555570919.70172,-14.27208
1555570919.71735,-14.83296
1555570919.73297,-13.28204
1555570919.7486,-9.693382
1555570919.76422,-4.448296
1555570919.77985,1.789429
1555570919.79548,8.236855
1555570919.8111,14.12316
1555570919.82673,18.85378
1555570919.84235,22.08878
1555570919.85798,23.77338
1555570919.8736,24.09082
1555570919.88923,23.33838
1555570919.90486,21.84475
1555570919.92048,19.84885
1555570919.93611,17.48945
1555570919.95173,14.86999
1555570919.96736,12.11884
1555570919.98298,9.413536
1555570919.99861,6.960579
1555570920.01424,4.907204
1555570920.02986,3.30204
1555570920.04549,2.06073
1555570920.06111,1.04493
1555570920.07674,0.1522293
1555570920.09236,-0.6083984
1555570920.10799,-1.147575
1555570920.12362,-1.368973
1555570920.13924,-1.302483
1555570920.15487,-1.11628
1555570920.17049,-1.090263
1555570920.18612,-1.494934
1555570920.20174,-2.443321
1555570920.21737,-3.876007
1555570920.233,-5.579025
1555570920.24862,-7.317497
1555570920.26425,-8.90403
1555570920.27987,-10.26239
1555570920.2955,-11.40958
1555570920.31112,-12.43345
1555570920.32675,-13.48329
1555570920.34238,-14.75846
1555570920.358,-16.48753
1555570920.37363,-18.83838
1555570920.38925,-21.8511
1555570920.40488,-25.30034
1555570920.4205,-28.72042
1555570920.43613,-31.40312
1555570920.45176,-32.59616
1555570920.46738,-31.69891
1555570920.48301,-28.47193
1555570920.49863,-23.1383
1555570920.51426,-16.32798
1555570920.52988,-8.935417
1555570920.54551,-1.840996
1555570920.56114,4.263519
1555570920.57676,9.021065
1555570920.59239,12.36312
1555570920.60801,14.41554
1555570920.62364,15.35916
1555570920.63926,15.37249
1555570920.65489,14.65589
1555570920.67052,13.44312
1555570920.68614,12.04987
1555570920.70177,10.77372
1555570920.71739,9.859802
1555570920.73302,9.450974
1555570920.74864,9.610092
1555570920.76427,10.36293
1555570920.7799,11.71832
1555570920.79552,13.66254
1555570920.81115,16.07353
1555570920.82677,18.71239
1555570920.8424,21.26968
1555570920.85802,23.47008
1555570920.87365,25.18273
1555570920.88928,26.42224
1555570920.9049,27.29376
1555570920.92053,27.84143
1555570920.93615,27.9904
1555570920.95178,27.53487
1555570920.9674,26.26575
1555570920.98303,24.06202
1555570920.99866,20.96795
1555570921.01428,17.16591
1555570921.02991,12.88813
1555570921.04553,8.340569
1555570921.06116,3.654701
1555570921.07678,-1.071251
1555570921.09241,-5.757561
1555570921.10804,-10.33624
1555570921.12366,-14.76526
1555570921.13929,-19.01448
1555570921.15491,-23.04588
1555570921.17054,-26.72186
1555570921.18616,-29.74233
1555570921.20179,-31.69012
1555570921.21742,-32.14013
1555570921.23304,-30.83454
1555570921.24867,-27.82937
1555570921.26429,-23.52064
1555570921.27992,-18.54923
1555570921.29554,-13.60354
1555570921.31117,-9.240211
1555570921.3268,-5.73941
1555570921.34242,-3.097977
1555570921.35805,-1.045547
1555570921.37367,0.7995682
1555570921.3893,2.839195
1555570921.40492,5.361198
1555570921.42055,8.464027
1555570921.43618,12.06145
1555570921.4518,15.89735
1555570921.46743,19.64278
1555570921.48305,22.97385
1555570921.49868,25.66058
1555570921.5143,27.61056
1555570921.52993,28.88397
1555570921.54556,29.65958
1555570921.56118,30.13136
1555570921.57681,30.47173
1555570921.59243,30.68541
1555570921.60806,30.59599
1555570921.62368,29.90631
1555570921.63931,28.30214
1555570921.65494,25.60977
1555570921.67056,21.9197
1555570921.68619,17.55412
1555570921.70181,12.97564
1555570921.71744,8.622414
1555570921.73306,4.779659
1555570921.74869,1.529869
1555570921.76432,-1.160927
1555570921.77994,-3.39389
1555570921.79557,-5.277256
1555570921.81119,-6.935871
1555570921.82682,-8.542229
1555570921.84244,-10.37688
1555570921.85807,-12.73619
1555570921.8737,-15.89374
1555570921.88932,-19.98534
1555570921.90495,-24.94419
1555570921.92057,-30.48985
1555570921.9362,-36.18423
1555570921.95182,-41.45597
1555570921.96745,-45.72955
1555570921.98308,-48.47382
1555570921.9987,-49.23823
1555570922.01433,-47.7312
1555570922.02995,-43.92587
1555570922.04558,-38.08936
1555570922.0612,-30.80183
1555570922.07683,-22.83968
1555570922.09246,-15.01717
1555570922.10808,-8.019339
1555570922.12371,-2.259104
1555570922.13933,2.119959
1555570922.15496,5.197182
1555570922.17058,7.163427
1555570922.18621,8.243757
1555570922.20184,8.636347
1555570922.21746,8.523535
1555570922.23309,8.043844
1555570922.24871,7.317453
1555570922.26434,6.422369
1555570922.27997,5.449631
1555570922.29559,4.474646
1555570922.31122,3.618429
1555570922.32684,3.031891
1555570922.34247,2.810831
1555570922.35809,2.990057
1555570922.37372,3.481005
1555570922.38935,4.101217
1555570922.40497,4.632492
1555570922.4206,4.91065
1555570922.43622,4.848785
1555570922.45185,4.462229
1555570922.46747,3.820187
1555570922.4831,2.956791
1555570922.49873,1.858543
1555570922.51435,0.4776764
1555570922.52998,-1.226898
1555570922.5456,-3.244192
1555570922.56123,-5.503391
1555570922.57685,-7.882298
1555570922.59248,-10.27158
1555570922.60811,-12.59218
1555570922.62373,-14.82679
1555570922.63936,-16.98305
1555570922.65498,-19.06881
1555570922.67061,-21.10565
1555570922.68623,-23.13448
1555570922.70186,-25.25643
1555570922.71749,-27.61255
1555570922.73311,-30.3457
1555570922.74874,-33.47269
1555570922.76436,-36.83313
1555570922.77999,-40.01629
1555570922.79561,-42.42514
1555570922.81124,-43.34102
1555570922.82687,-42.15992
1555570922.84249,-38.59349
1555570922.85812,-32.78314
1555570922.87374,-25.32484
1555570922.88937,-17.05682
1555570922.90499,-8.845001
1555570922.92062,-1.315426
1555570922.93625,5.193741
1555570922.95187,10.61053
1555570922.9675,14.95785
1555570922.98312,18.23766
1555570922.99875,20.39281
1555570923.01437,21.39672
1555570923.03,21.35049
1555570923.04563,20.52225
1555570923.06125,19.2934
1555570923.07688,18.03243
1555570923.0925,17.00626
1555570923.10813,16.3332
1555570923.12375,16.00576
1555570923.13938,15.98874
1555570923.15501,16.23671
1555570923.17063,16.71526
1555570923.18626,17.3643
1555570923.20188,18.08479
1555570923.21751,18.73753
1555570923.23313,19.17681
1555570923.24876,19.31654
1555570923.26439,19.14468
1555570923.28001,18.72211
1555570923.29564,18.10983
1555570923.31126,17.35973
1555570923.32689,16.4655
1555570923.34251,15.42613
1555570923.35814,14.2842
1555570923.37377,13.1918
1555570923.38939,12.35705
1555570923.40502,11.94166
1555570923.42064,11.93916
1555570923.43627,12.10387
1555570923.45189,12.03214
1555570923.46752,11.28651
1555570923.48315,9.574425
1555570923.49877,6.814667
1555570923.5144,3.116089
1555570923.53002,-1.288742
1555570923.56127,-10.83004
1555570923.54565,-6.077965
1555570923.5769,-14.98585
1555570923.59253,-17.82657
1555570923.60815,-18.59724
1555570923.62378,-16.77245
1555570923.6394,-12.2346
1555570923.65503,-5.446129
1555570923.67065,2.670555
1555570923.68628,10.97066
1555570923.70191,18.42339
1555570923.71753,24.31044
1555570923.73316,28.36127
1555570923.74878,30.62051
1555570923.76441,31.31059
1555570923.78003,30.69284
1555570923.79566,29.02402
1555570923.81129,26.564
1555570923.82691,23.64106
1555570923.84254,20.62898
1555570923.85816,17.87691
1555570923.87379,15.61446
1555570923.88941,13.89212
1555570923.90504,12.60487
1555570923.92067,11.60438
1555570923.93629,10.79243
1555570923.95192,10.17071
1555570923.96754,9.800499
1555570923.98317,9.703026
1555570923.99879,9.818489
1555570924.01442,9.940323
1555570924.03005,9.81852
1555570924.04567,9.174591
1555570924.0613,7.843292
1555570924.07692,5.780144
1555570924.09255,3.101662
1555570924.10817,0.0406189
1555570924.1238,-3.102577
1555570924.13943,-6.059624
1555570924.15505,-8.659134
1555570924.17068,-10.87034
1555570924.1863,-12.78812
1555570924.20193,-14.56489
1555570924.21755,-16.39169
1555570924.23318,-18.39689
1555570924.24881,-20.64442
1555570924.26443,-23.12866
1555570924.28006,-25.82248
1555570924.29568,-28.66402
1555570924.31131,-31.56247
1555570924.32693,-34.38262
1555570924.34256,-36.90257
1555570924.35819,-38.78966
1555570924.37381,-39.64546
1555570924.38944,-39.03809
1555570924.40506,-36.64602
1555570924.42069,-32.37045
1555570924.43631,-26.41265
1555570924.45194,-19.23867
1555570924.46757,-11.47773
1555570924.48319,-3.742535
1555570924.49882,3.466431
1555570924.51444,9.812885
1555570924.53007,15.07336
1555570924.5457,19.09936
1555570924.56132,21.75456
1555570924.57695,22.9901
1555570924.59257,22.88073
1555570924.6082,21.68542
1555570924.62382,19.81905
1555570924.63945,17.71988
1555570924.65508,15.74762
1555570924.6707,14.11501
1555570924.68633,12.887
1555570924.70195,12.06904
1555570924.71758,11.68337
1555570924.7332,11.76991
1555570924.74883,12.31532
1555570924.76446,13.23382
1555570924.78008,14.313
1555570924.79571,15.27372
1555570924.81133,15.82931
1555570924.82696,15.79819
1555570924.84258,15.09266
1555570924.85821,13.74878
1555570924.87384,11.88586
1555570924.88946,9.664513
1555570924.90509,7.25845
1555570924.92071,4.813984
1555570924.93634,2.445885
1555570924.95196,0.1684151
1555570924.96759,-2.039341
1555570924.98322,-4.240883
1555570924.99884,-6.47184
1555570925.01447,-8.753681
1555570925.03009,-11.07198
1555570925.04572,-13.45439
1555570925.06134,-15.95429
1555570925.07697,-18.67759
1555570925.0926,-21.73809
1555570925.10822,-25.13965
1555570925.12385,-28.76797
1555570925.13947,-32.29639
1555570925.1551,-35.25644
1555570925.17072,-37.05956
1555570925.18635,-37.18071
1555570925.20198,-35.26767
1555570925.2176,-31.25938
1555570925.23323,-25.42705
1555570925.24885,-18.27191
1555570925.26448,-10.4347
1555570925.2801,-2.583542
1555570925.29573,4.668171
1555570925.31136,10.77987
1555570925.32698,15.33067
1555570925.34261,18.09299
1555570925.35823,19.0923
1555570925.37386,18.62828
1555570925.38948,17.18004
1555570925.40511,15.26221
1555570925.42074,13.261
1555570925.43636,11.36294
1555570925.45199,9.587605
1555570925.46761,7.922241
1555570925.48324,6.428947
1555570925.49886,5.279251
1555570925.51449,4.653309
1555570925.53012,4.631615
1555570925.54574,5.111511
1555570925.56137,5.830547
1555570925.57699,6.484646
1555570925.59262,6.85651
1555570925.60824,6.875763
1555570925.62387,6.604919
1555570925.6395,6.120228
1555570925.65512,5.436634
1555570925.67075,4.478119
1555570925.68637,3.13353
1555570925.702,1.373692
1555570925.71762,-0.6913147
1555570925.73325,-2.813759
1555570925.74888,-4.737404
1555570925.7645,-6.330025
1555570925.78013,-7.64381
1555570925.79575,-8.868706
1555570925.81138,-10.23768
1555570925.827,-11.8642
1555570925.84263,-13.71492
1555570925.85826,-15.65218
1555570925.87388,-17.56997
1555570925.88951,-19.48479
1555570925.90513,-21.55695
1555570925.92076,-23.96077
1555570925.93638,-26.70735
1555570925.95201,-29.53312
1555570925.96764,-31.86427
1555570925.98326,-32.99609
1555570925.99889,-32.31236
1555570926.01451,-29.50101
1555570926.03014,-24.65462
1555570926.04576,-18.21191
1555570926.06139,-10.85561
1555570926.07702,-3.310379
1555570926.09264,3.754219
1555570926.10827,9.824844
1555570926.12389,14.56659
1555570926.13952,17.8136
1555570926.15514,19.60928
1555570926.17077,20.13255
1555570926.1864,19.70091
1555570926.20202,18.66589
1555570926.21765,17.35248
1555570926.23327,15.97873
1555570926.2489,14.67067
1555570926.26452,13.50082
1555570926.28015,12.55274
1555570926.29578,11.94611
1555570926.3114,11.79701
1555570926.32703,12.16553
1555570926.34265,12.99613
1555570926.35828,14.12275
1555570926.3739,15.28192
1555570926.38953,16.22952
1555570926.40516,16.77367
1555570926.42078,16.83496
1555570926.43641,16.43451
1555570926.45203,15.66647
1555570926.46766,14.64085
1555570926.48328,13.46718
1555570926.49891,12.23082
1555570926.51454,10.94605
1555570926.53016,9.610153
1555570926.54579,8.167274
1555570926.56141,6.561172
1555570926.57704,4.756157
1555570926.59266,2.751701
1555570926.60829,0.6014404
1555570926.62392,-1.619247
1555570926.63954,-3.866798
1555570926.65517,-6.116791
1555570926.67079,-8.391846
1555570926.68642,-10.76981
1555570926.70204,-13.32209
1555570926.71767,-16.10523
1555570926.7333,-19.04023
1555570926.74892,-21.87828
1555570926.76455,-24.16179
1555570926.78017,-25.28436
1555570926.7958,-24.62415
1555570926.81142,-21.79841
1555570926.82705,-16.79697
1555570926.84268,-10.0471
1555570926.8583,-2.341835
1555570926.87393,5.403404
1555570926.88955,12.35446
1555570926.90518,17.94686
1555570926.9208,21.92925
1555570926.93643,24.30091
1555570926.95206,25.22653
1555570926.96768,24.92001
1555570926.98331,23.67367
1555570926.99893,21.79095
1555570927.01456,19.62547
1555570927.03018,17.52363
1555570927.04581,15.74334
1555570927.06144,14.38814
1555570927.07706,13.42465
1555570927.09269,12.72594
1555570927.10831,12.19218
1555570927.12394,11.81052
1555570927.13957,11.62862
1555570927.15519,11.68993
1555570927.17082,11.94511
1555570927.18644,12.23025
1555570927.20207,12.32403
1555570927.21769,12.04712
1555570927.23332,11.31461
1555570927.24895,10.17625
1555570927.26457,8.741737
1555570927.2802,7.100151
1555570927.29582,5.296021
1555570927.31145,3.31424
1555570927.32707,1.125862
1555570927.3427,-1.253204
1555570927.35833,-3.777542
1555570927.37395,-6.379562
1555570927.38958,-9.014793
1555570927.4052,-11.61384
1555570927.42083,-14.13369
1555570927.43645,-16.51488
1555570927.45208,-18.7181
1555570927.46771,-20.79581
1555570927.48333,-22.85851
1555570927.49896,-25.0996
1555570927.51458,-27.66152
1555570927.53021,-30.53619
1555570927.54583,-33.50522
1555570927.56146,-36.1224
1555570927.57709,-37.79932
1555570927.59271,-37.90817
1555570927.60834,-35.96165
1555570927.62396,-31.73054
1555570927.63959,-25.35049
1555570927.65521,-17.33811
1555570927.67084,-8.490959
1555570927.68647,0.273056
1555570927.70209,8.128464
1555570927.71772,14.50571
1555570927.73334,19.18283
1555570927.74897,22.24148
1555570927.76459,23.94808
1555570927.78022,24.57037
1555570927.79585,24.32087
1555570927.81147,23.32341
1555570927.8271,21.70863
1555570927.84272,19.70522
1555570927.85835,17.63966
1555570927.87397,15.87431
1555570927.8896,14.71717
1555570927.90523,14.29103
1555570927.92085,14.52259
1555570927.93648,15.18055
1555570927.9521,15.98151
1555570927.96773,16.69623
1555570927.98335,17.20597
1555570927.99898,17.4657
1555570928.01461,17.43556
1555570928.03023,17.00907
1555570928.04586,16.07306
1555570928.06148,14.52458
1555570928.07711,12.42408
1555570928.09273,9.993176
1555570928.10836,7.518242
1555570928.12399,5.238079
1555570928.13961,3.224281
1555570928.15524,1.339939
1555570928.17086,-0.6752586
1555570928.18649,-3.036503
1555570928.20211,-5.826138
1555570928.21774,-8.90358
1555570928.23337,-12.00035
1555570928.24899,-14.853
1555570928.26462,-17.29676
1555570928.28024,-19.336
1555570928.29587,-21.10803
1555570928.31149,-22.87369
1555570928.32712,-24.88452
1555570928.34275,-27.30598
1555570928.35837,-30.15623
1555570928.374,-33.22462
1555570928.38962,-36.07412
1555570928.40525,-38.10169
1555570928.42087,-38.64302
1555570928.4365,-37.11889
1555570928.45213,-33.22507
1555570928.46775,-27.03991
1555570928.48338,-19.07123
1555570928.499,-10.13206
1555570928.51463,-1.172153
1555570928.53025,6.951279
1555570928.54588,13.65375
1555570928.56151,18.676
1555570928.57713,22.04548
1555570928.59276,23.93577
1555570928.60838,24.5821
1555570928.62401,24.20952
1555570928.63963,23.01374
1555570928.65526,21.20163
1555570928.67089,19.01359
1555570928.68651,16.72076
1555570928.70214,14.56532
1555570928.71776,12.75582
1555570928.73339,11.41626
1555570928.74901,10.62234
1555570928.76464,10.36814
1555570928.78027,10.5902
1555570928.79589,11.13909
1555570928.81152,11.80657
1555570928.82714,12.34288
1555570928.84277,12.5253
1555570928.85839,12.20569
1555570928.87402,11.31869
1555570928.88965,9.916702
1555570928.90527,8.115726
1555570928.9209,6.073017
1555570928.93652,3.924099
1555570928.95215,1.761272
1555570928.96777,-0.3410378
1555570928.9834,-2.362576
1555570928.99903,-4.297562
1555570929.01465,-6.192028
1555570929.03028,-8.129211
1555570929.0459,-10.20851
1555570929.06153,-12.49121
1555570929.07715,-14.93938
1555570929.09278,-17.42777
1555570929.10841,-19.77
1555570929.12403,-21.89159
1555570929.13966,-23.82298
1555570929.15528,-25.77066
1555570929.17091,-27.95641
1555570929.18653,-30.50617
1555570929.20216,-33.33017
1555570929.21779,-36.1137
1555570929.23341,-38.38246
1555570929.24904,-39.60796
1555570929.26466,-39.30858
1555570929.28029,-37.11527
1555570929.29591,-32.89376
1555570929.31154,-26.75788
1555570929.32717,-19.18226
1555570929.34279,-10.87056
1555570929.35842,-2.714275
1555570929.37404,4.471966
1555570929.38967,10.09545
1555570929.4053,13.85643
1555570929.42092,15.77219
1555570929.43655,16.05923
1555570929.45217,15.05229
1555570929.4678,13.17959
1555570929.48342,10.92495
1555570929.49905,8.761116
1555570929.51468,7.079967
1555570929.5303,6.106518
1555570929.54593,5.872437
1555570929.56155,6.227798
1555570929.57718,6.964531
1555570929.5928,7.886559
1555570929.60843,8.866905
1555570929.62406,9.813377
1555570929.63968,10.68274
1555570929.65531,11.44264
1555570929.67093,12.07417
1555570929.68656,12.5432
1555570929.70218,12.83816
1555570929.71781,12.92596
1555570929.73344,12.75372
1555570929.74906,12.31234
1555570929.76469,11.62631
1555570929.78031,10.75474
1555570929.79594,9.743095
1555570929.81156,8.584854
1555570929.82719,7.201172
1555570929.84282,5.508965
1555570929.85844,3.517471
1555570929.87407,1.36953
1555570929.88969,-0.682045
1555570929.90532,-2.388298
1555570929.92094,-3.630066
1555570929.93657,-4.486015
1555570929.9522,-5.222908
1555570929.96782,-6.214714
1555570929.98345,-7.793373
1555570929.99907,-10.13029
1555570930.0147,-13.14107
1555570930.03032,-16.39694
1555570930.04595,-19.19334
1555570930.06158,-20.72154
1555570930.0772,-20.27637
1555570930.09283,-17.49512
1555570930.10845,-12.50333
1555570930.12408,-5.855881
1555570930.1397,1.628426
1555570930.15533,9.119835
1555570930.17096,15.96047
1555570930.18658,21.73371
1555570930.20221,26.23871
1555570930.21783,29.42373
1555570930.23346,31.31502
1555570930.24908,32.01275
1555570930.26471,31.66208
1555570930.28034,30.44401
1555570930.29596,28.5277
1555570930.31159,26.09698
1555570930.32721,23.32491
1555570930.34284,20.42997
1555570930.35846,17.67476
1555570930.37409,15.32762
1555570930.38972,13.60748
1555570930.40534,12.60602
1555570930.42097,12.24579
1555570930.43659,12.36195
1555570930.45222,12.71431
1555570930.46784,13.08854
1555570930.48347,13.29231
1555570930.4991,13.18403
1555570930.51472,12.62428
1555570930.53035,11.5233
1555570930.54597,9.856598
1555570930.5616,7.68589
1555570930.57722,5.167068
1555570930.59285,2.482681
1555570930.60848,-0.2234268
1555570930.6241,-2.936577
1555570930.63973,-5.708633
1555570930.65535,-8.64695
1555570930.67098,-11.75061
1555570930.6866,-14.89103
1555570930.70223,-17.79189
1555570930.71786,-20.15144
1555570930.73348,-21.74937
1555570930.74911,-22.55677
1555570930.76473,-22.79633
1555570930.78036,-22.85754
1555570930.79598,-23.20432
1555570930.81161,-24.15343
1555570930.82724,-25.75935
1555570930.84286,-27.70682
1555570930.85849,-29.40431
1555570930.87411,-30.12206
1555570930.88974,-29.23999
1555570930.90536,-26.42696
1555570930.92099,-21.75905
1555570930.93662,-15.64417
1555570930.95224,-8.6875
1555570930.96787,-1.517731
1555570930.98349,5.323067
1555570930.99912,11.41227
1555570931.01474,16.41986
1555570931.03037,20.10259
1555570931.046,22.32183
1555570931.06162,23.11559
1555570931.07725,22.68511
1555570931.09287,21.38488
1555570931.1085,19.59525
1555570931.12412,17.61813
1555570931.13975,15.6443
1555570931.15538,13.77381
1555570931.171,12.08542
1555570931.18663,10.70538
1555570931.20225,9.805252
1555570931.21788,9.512886
1555570931.2335,9.844131
1555570931.24913,10.62724
1555570931.26476,11.57951
1555570931.28038,12.36254
1555570931.29601,12.73265
1555570931.31163,12.58912
1555570931.32726,12.00432
1555570931.34288,11.14502
1555570931.35851,10.19952
1555570931.37414,9.259914
1555570931.38976,8.293865
1555570931.40539,7.168949
1555570931.42101,5.707054
1555570931.43664,3.783348
1555570931.45226,1.410088
1555570931.46789,-1.303852
1555570931.48352,-4.164207
1555570931.49914,-7.007465
1555570931.51477,-9.714966
1555570931.53039,-12.21505
1555570931.54602,-14.45574
1555570931.56165,-16.3944
1555570931.57727,-18.06107
1555570931.5929,-19.58553
1555570931.60852,-21.22405
1555570931.62415,-23.2865
1555570931.63977,-25.99438
1555570931.6554,-29.29478
1555570931.67103,-32.83606
1555570931.68665,-35.97218
1555570931.70228,-37.94533
1555570931.7179,-38.10425
1555570931.73353,-36.04663
1555570931.74915,-31.75475
1555570931.76478,-25.52909
1555570931.78041,-17.91965
1555570931.79603,-9.600422
1555570931.81166,-1.260536
1555570931.82728,6.499596
1555570931.84291,13.23069
1555570931.85853,18.61528
1555570931.87416,22.5231
1555570931.88979,24.96987
1555570931.90541,26.06614
1555570931.92104,26.02384
1555570931.93666,25.09532
1555570931.95229,23.56373
1555570931.96791,21.69258
1555570931.98354,19.75722
1555570931.99917,17.96534
1555570932.01479,16.50829
1555570932.03042,15.52298
1555570932.04604,15.05645
1555570932.06167,15.05114
1555570932.07729,15.34542
1555570932.09292,15.69831
1555570932.10855,15.82391
1555570932.12417,15.4947
1555570932.1398,14.5246
1555570932.15542,12.88946
1555570932.17105,10.66095
1555570932.18667,8.015175
1555570932.2023,5.201103
1555570932.21793,2.485809
1555570932.23355,0.1144981
1555570932.24918,-1.78167
1555570932.2648,-3.212467
1555570932.28043,-4.331863
1555570932.29605,-5.354317
1555570932.31168,-6.479797
1555570932.32731,-7.806541
1555570932.34293,-9.315487
1555570932.35856,-10.93126
1555570932.37418,-12.59188
1555570932.38981,-14.28845
1555570932.40543,-16.07117
1555570932.42106,-18.0358
1555570932.43669,-20.25266
1555570932.45231,-22.78172
1555570932.46794,-25.68447
1555570932.48356,-29.00181
1555570932.49919,-32.7437
1555570932.51481,-36.7729
1555570932.53044,-40.72732
1555570932.54607,-43.97413
1555570932.56169,-45.73799
1555570932.57732,-45.27746
1555570932.59294,-42.12545
1555570932.60857,-36.29937
1555570932.62419,-28.28634
1555570932.63982,-19.02069
1555570932.65545,-9.556156
1555570932.67107,-0.8494148
1555570932.6867,6.471188
1555570932.70232,12.14504
1555570932.71795,16.2816
1555570932.73357,19.14304
1555570932.7492,21.01892
1555570932.76483,22.10145
1555570932.78045,22.48675
1555570932.79608,22.22706
1555570932.8117,21.38826
1555570932.82733,20.10394
1555570932.84295,18.5671
1555570932.85858,17.05076
1555570932.87421,15.83036
1555570932.88983,15.15194
1555570932.90546,15.18118
1555570932.92108,15.92212
1555570932.93671,17.24014
1555570932.95233,18.83123
1555570932.96796,20.35267
1555570932.98359,21.51696
1555570932.99921,22.17339
1555570933.01484,22.31502
1555570933.03046,22.05177
1555570933.04609,21.52223
1555570933.06171,20.79612
1555570933.07734,19.89313
1555570933.09297,18.76361
1555570933.10859,17.34538
1555570933.12422,15.56668
1555570933.13984,13.35547
1555570933.15547,10.63977
1555570933.17109,7.389618
1555570933.18672,3.674973
1555570933.20235,-0.3455391
1555570933.21797,-4.389198
1555570933.2336,-8.155506
1555570933.24922,-11.38449
1555570933.26485,-14.01281
1555570933.28047,-16.17471
1555570933.2961,-18.20167
1555570933.31173,-20.47314
1555570933.32735,-23.2463
1555570933.34298,-26.50954
1555570933.3586,-29.90063
1555570933.37423,-32.74766
1555570933.38985,-34.26109
1555570933.40548,-33.74732
1555570933.42111,-30.79357
1555570933.43673,-25.36049
1555570933.45236,-17.78467
1555570933.46798,-8.702393
1555570933.48361,1.046818
1555570933.49923,10.55294
1555570933.51486,18.93216
1555570933.53049,25.49055
1555570933.54611,29.84916
1555570933.56174,32.00364
1555570933.57736,32.29124
1555570933.59299,31.2776
1555570933.60861,29.54649
1555570933.62424,27.53988
1555570933.63987,25.53164
1555570933.65549,23.5953
1555570933.67112,21.7167
1555570933.68674,19.86955
1555570933.70237,18.03925
1555570933.71799,16.24154
1555570933.73362,14.48076
1555570933.74925,12.77118
1555570933.76487,11.1359
1555570933.7805,9.650604
1555570933.79612,8.402615
1555570933.81175,7.437183
1555570933.82737,6.652493
1555570933.843,5.782795
1555570933.85863,4.512932
1555570933.87425,2.606728
1555570933.88988,0.09060287
1555570933.9055,-2.772774
1555570933.92113,-5.58242
1555570933.93675,-8.059322
1555570933.95238,-10.19301
1555570933.96801,-12.23447
1555570933.98363,-14.54067
1555570933.99926,-17.28139
1555570934.01488,-20.32664
1555570934.03051,-23.29679
1555570934.04613,-25.79517
1555570934.06176,-27.61406
1555570934.07739,-28.90144
1555570934.09301,-29.98663
1555570934.10864,-31.14593
1555570934.12426,-32.39851
1555570934.13989,-33.36489
1555570934.15551,-33.4354
1555570934.17114,-31.96109
1555570934.18677,-28.53795
1555570934.20239,-23.11889
1555570934.21802,-16.05848
1555570934.23364,-7.946304
1555570934.24927,0.5054092
1555570934.2649,8.613071
1555570934.28052,15.83249
1555570934.29615,21.75843
1555570934.31177,26.17682
1555570934.3274,29.0368
1555570934.34302,30.47951
1555570934.35865,30.79379
1555570934.37428,30.3302
1555570934.3899,29.38569
1555570934.40553,28.12124
1555570934.42115,26.56713
1555570934.43678,24.68268
1555570934.4524,22.47276
1555570934.46803,20.06624
1555570934.48366,17.68817
1555570934.49928,15.55858
1555570934.51491,13.79536
1555570934.53053,12.37177
1555570934.54616,11.15923
1555570934.56178,10.04178
1555570934.57741,8.982166
1555570934.59304,8.022516
1555570934.60866,7.205008
1555570934.62429,6.478296
1555570934.63991,5.64115
1555570934.65554,4.41304
1555570934.67116,2.556957
1555570934.68679,0.01234818
1555570934.70242,-3.109898
1555570934.71804,-6.560766
1555570934.73367,-10.05701
1555570934.74929,-13.36895
1555570934.76492,-16.33767
1555570934.78054,-18.86408
1555570934.79617,-20.93398
1555570934.8118,-22.65549
1555570934.82742,-24.25852
1555570934.84305,-26.12358
1555570934.85867,-28.65616
1555570934.8743,-32.14729
1555570934.88992,-36.57233
1555570934.90555,-41.50364
1555570934.92118,-46.16183
1555570934.9368,-49.60381
1555570934.95243,-50.96195
1555570934.96805,-49.68363
1555570934.98368,-45.65939
1555570934.9993,-39.20795
1555570935.01493,-30.99569
1555570935.03056,-21.87392
1555570935.04618,-12.7019
1555570935.06181,-4.216795
1555570935.07743,3.08395
1555570935.10868,13.31276
1555570935.09306,8.9321
1555570935.12431,16.37665
1555570935.13994,18.37613
1555570935.15556,19.56103
1555570935.17119,20.12533
1555570935.18681,20.17051
1555570935.20244,19.69828
1555570935.21806,18.71343
1555570935.23369,17.29406
1555570935.24932,15.64597
1555570935.26494,14.08817
1555570935.28057,12.93064
1555570935.29619,12.40384
1555570935.31182,12.52508
1555570935.32744,13.15796
1555570935.34307,14.07717
1555570935.3587,15.04983
1555570935.37432,15.91238
1555570935.38995,16.54293
1555570935.40557,16.82926
1555570935.4212,16.62519
1555570935.43682,15.79882
1555570935.45245,14.25799
1555570935.46808,12.04636
1555570935.4837,9.293701
1555570935.49933,6.217754
1555570935.51495,3.009857
1555570935.53058,-0.1918182
1555570935.5462,-3.297958
1555570935.56183,-6.275623
1555570935.57746,-9.095566
1555570935.59308,-11.77271
1555570935.60871,-14.34332
1555570935.62433,-16.91798
1555570935.63996,-19.62425
1555570935.65558,-22.61942
1555570935.67121,-25.97782
1555570935.68684,-29.64964
1555570935.70246,-33.39587
1555570935.71809,-36.79226
1555570935.73371,-39.28262
1555570935.74934,-40.2734
1555570935.76496,-39.29296
1555570935.78059,-36.08966
1555570935.79622,-30.74015
1555570935.81184,-23.61525
1555570935.82747,-15.35841
1555570935.84309,-6.752674
1555570935.85872,1.38903
1555570935.87434,8.38269
1555570935.88997,13.80766
1555570935.9056,17.56036
1555570935.92122,19.82367
1555570935.93685,20.92364
1555570935.95247,21.18744
1555570935.9681,20.85656
1555570935.98372,20.07161
1555570935.99935,18.97079
1555570936.01498,17.7547
1555570936.0306,16.6828
1555570936.04623,16.01245
1555570936.06185,15.86463
1555570936.07748,16.17388
1555570936.0931,16.72161
1555570936.10873,17.23459
1555570936.12436,17.48305
1555570936.13998,17.34237
1555570936.15561,16.77151
1555570936.17123,15.78529
1555570936.18686,14.45287
1555570936.20248,12.88245
1555570936.21811,11.24725
1555570936.23374,9.741653
1555570936.24936,8.522575
1555570936.26499,7.610725
1555570936.28061,6.875015
1555570936.29624,6.068871
1555570936.31186,4.942207
1555570936.32749,3.349876
1555570936.34312,1.330544
1555570936.35874,-0.934494
1555570936.37437,-3.23893
1555570936.38999,-5.452324
1555570936.40562,-7.614769
1555570936.42125,-9.875748
1555570936.43687,-12.37097
1555570936.4525,-15.12179
1555570936.46812,-17.93468
1555570936.48375,-20.44624
1555570936.49937,-22.21857
1555570936.515,-22.86099
1555570936.53063,-22.07665
1555570936.54625,-19.69325
1555570936.56188,-15.65694
1555570936.5775,-10.04426
1555570936.59313,-3.138275
1555570936.60875,4.593506
1555570936.62438,12.4593
1555570936.64001,19.70319
1555570936.65563,25.63938
1555570936.67126,29.83031
1555570936.68688,32.19798
1555570936.70251,32.96275
1555570936.71813,32.54905
1555570936.73376,31.37479
1555570936.74939,29.75033
1555570936.76501,27.81472
1555570936.78064,25.65481
1555570936.79626,23.39008
1555570936.81189,21.26387
1555570936.82751,19.62035
1555570936.84314,18.75263
1555570936.85877,18.77088
1555570936.87439,19.48032
1555570936.89002,20.47272
1555570936.90564,21.21416
1555570936.92127,21.28906
1555570936.93689,20.51987
1555570936.95252,18.9651
1555570936.96815,16.85259
1555570936.98377,14.43481
1555570936.9994,11.92723
1555570937.01502,9.443607
1555570937.03065,7.029121
1555570937.04627,4.635052
1555570937.0619,2.145916
1555570937.07753,-0.608902
1555570937.09315,-3.809547
1555570937.10878,-7.561798
1555570937.1244,-11.84159
1555570937.14003,-16.45192
1555570937.15565,-21.08503
1555570937.17128,-25.41941
1555570937.18691,-29.22292
1555570937.20253,-32.42839
1555570937.21816,-35.08705
1555570937.23378,-37.26982
1555570937.24941,-38.92125
1555570937.26503,-39.81993
1555570937.28066,-39.57404
1555570937.29629,-37.77116
1555570937.31191,-34.14085
1555570937.32754,-28.67213
1555570937.34316,-21.69077
1555570937.35879,-13.79266
1555570937.37441,-5.674679
1555570937.39004,2.02108
1555570937.40567,8.80085
1555570937.42129,14.37925
1555570937.43692,18.63441
1555570937.45254,21.52092
1555570937.46817,23.01918
1555570937.48379,23.16109
1555570937.49942,22.02844
1555570937.51505,19.81806
1555570937.53067,16.82875
1555570937.5463,13.42459
1555570937.56192,9.995956
1555570937.57755,6.885777
1555570937.59317,4.376455
1555570937.6088,2.648346
1555570937.62443,1.768251
1555570937.64005,1.658577
1555570937.65568,2.153301
1555570937.6713,3.033899
1555570937.68693,4.134356
1555570937.70255,5.343063
1555570937.71818,6.618301
1555570937.73381,7.906075
1555570937.74943,9.092649
1555570937.76506,10.00564
1555570937.78068,10.46716
1555570937.79631,10.35027
1555570937.81193,9.613892
1555570937.82756,8.309956
1555570937.84319,6.505545
1555570937.85881,4.24725
1555570937.87444,1.561037
1555570937.89006,-1.531685
1555570937.90569,-5.01688
1555570937.92131,-8.832176
1555570937.93694,-12.9014
1555570937.95257,-17.12395
1555570937.96819,-21.42247
1555570937.98382,-25.72229
1555570937.99944,-29.96586
1555570938.01507,-34.07315
1555570938.03069,-37.87418
1555570938.04632,-41.0591
1555570938.06195,-43.14825
1555570938.07757,-43.61388
1555570938.0932,-41.99229
1555570938.10882,-38.12985
1555570938.12445,-32.25312
1555570938.14007,-24.95453
1555570938.1557,-17.06892
1555570938.17133,-9.434788
1555570938.18695,-2.742418
1555570938.20258,2.607996
1555570938.2182,6.507353
1555570938.23383,9.093081
1555570938.24945,10.62674
1555570938.26508,11.40125
1555570938.28071,11.64626
1555570938.29633,11.51325
1555570938.31196,11.09365
1555570938.32758,10.49284
1555570938.34321,9.892893
1555570938.35883,9.528257
1555570938.37446,9.661097
1555570938.39009,10.44238
1555570938.40571,11.8326
1555570938.42134,13.60778
1555570938.43696,15.43816
1555570938.45259,17.01903
1555570938.46821,18.14031
1555570938.48384,18.76547
1555570938.49947,18.93464
1555570938.51509,18.75483
1555570938.53072,18.29601
1555570938.54634,17.62057
1555570938.56197,16.76384
1555570938.57759,15.74694
1555570938.59322,14.5774
1555570938.60885,13.22397
1555570938.62447,11.65787
1555570938.6401,9.842987
1555570938.65572,7.829226
1555570938.67135,5.703823
1555570938.68698,3.616116
1555570938.7026,1.694286
1555570938.71823,0.01421928
1555570938.73385,-1.457092
1555570938.74948,-2.841963
1555570938.7651,-4.305367
1555570938.78073,-6.02379
1555570938.79636,-8.119568
1555570938.81198,-10.61897
1555570938.82761,-13.40207
1555570938.84323,-16.16925
1555570938.85886,-18.47962
1555570938.87448,-19.80785
1555570938.89011,-19.66067
1555570938.90574,-17.74361
1555570938.92136,-14.04052
1555570938.93699,-8.854958
1555570938.95261,-2.787422
1555570938.96824,3.41794
1555570938.98386,9.055532
1555570938.99949,13.6173
1555570939.01512,16.84512
1555570939.03074,18.72448
1555570939.04637,19.34994
1555570939.06199,18.85654
1555570939.07762,17.36969
1555570939.09324,15.0631
1555570939.10887,12.23817
1555570939.1245,9.339794
1555570939.14012,6.871815
1555570939.15575,5.242212
1555570939.17137,4.572119
1555570939.187,4.664644
1555570939.20262,5.070611
1555570939.21825,5.333273
1555570939.23388,5.138305
1555570939.2495,4.408943
1555570939.26513,3.29345
1555570939.28075,2.014609
1555570939.29638,0.7563758
1555570939.312,-0.4301574
1555570939.32763,-1.574588
1555570939.34326,-2.789675
1555570939.35888,-4.156936
1555570939.37451,-5.716343
1555570939.39013,-7.437414
1555570939.40576,-9.262598
1555570939.42138,-11.12561
1555570939.43701,-12.96002
1555570939.45264,-14.72751
1555570939.46826,-16.40837
1555570939.48389,-18.02142
1555570939.49951,-19.62159
1555570939.51514,-21.27905
1555570939.53076,-23.09522
1555570939.54639,-25.15184
1555570939.56202,-27.47999
1555570939.57764,-29.9489
1555570939.59327,-32.22485
1555570939.60889,-33.76329
1555570939.62452,-33.88159
1555570939.64014,-31.96049
1555570939.65577,-27.65283
1555570939.6714,-21.02647
1555570939.68702,-12.57406
1555570939.70265,-3.128755
1555570939.71827,6.381256
1555570939.7339,15.0859
1555570939.74952,22.3496
1555570939.76515,27.81801
1555570939.78078,31.38481
1555570939.7964,33.1337
1555570939.81203,33.31201
1555570939.82765,32.24517
1555570939.84328,30.33785
1555570939.8589,28.02315
1555570939.87453,25.70739
1555570939.89016,23.69327
1555570939.90578,22.12525
1555570939.92141,20.99392
1555570939.93703,20.16211
1555570939.95266,19.47998
1555570939.96828,18.84809
1555570939.98391,18.27237
1555570939.99954,17.80663
1555570940.01516,17.48598
1555570940.03079,17.24398
1555570940.04641,16.90127
1555570940.06204,16.21166
1555570940.07766,14.95711
1555570940.09329,13.05313
1555570940.10892,10.51958
1555570940.12454,7.47581
1555570940.14017,4.070245
1555570940.15579,0.4021692
1555570940.17142,-3.480116
1555570940.18704,-7.564513
1555570940.20267,-11.85101
1555570940.2183,-16.29068
1555570940.23392,-20.81104
1555570940.24955,-25.30604
1555570940.26517,-29.68158
1555570940.2808,-33.89589
1555570940.29642,-37.94226
1555570940.31205,-41.8427
1555570940.32768,-45.56011
1555570940.3433,-48.96264
1555570940.35893,-51.75988
1555570940.37455,-53.51595
1555570940.39018,-53.71682
1555570940.4058,-51.88519
1555570940.42143,-47.68318
1555570940.43706,-41.02326
1555570940.45268,-32.14595
1555570940.46831,-21.60303
1555570940.48393,-10.22378
1555570940.49956,1.032698
1555570940.51518,11.22124
1555570940.53081,19.59233
1555570940.54644,25.70028
1555570940.56206,29.48573
1555570940.57769,31.28645
1555570940.59331,31.66771
1555570940.60894,31.31128
1555570940.62456,30.76659
1555570940.64019,30.3378
1555570940.65582,30.01991
1555570940.67144,29.62182
1555570940.68707,28.90791
1555570940.70269,27.79124
1555570940.71832,26.39684
1555570940.73394,24.99879
1555570940.74957,23.91743
1555570940.7652,23.31137
1555570940.78082,23.13217
1555570940.79645,23.12839
1555570940.81207,22.97549
1555570940.8277,22.42453
1555570940.84332,21.3853
1555570940.85895,19.90106
1555570940.87458,18.10339
1555570940.8902,16.11117
1555570940.90583,13.96004
1555570940.92145,11.65041
1555570940.93708,9.178001
1555570940.9527,6.574485
1555570940.96833,3.955297
1555570940.98396,1.411114
1555570940.99958,-1.034437
1555570941.01521,-3.461559
1555570941.03083,-6.013971
1555570941.04646,-8.802425
1555570941.06208,-11.86489
1555570941.07771,-15.12592
1555570941.09334,-18.49132
1555570941.10896,-21.94311
1555570941.12459,-25.52448
1555570941.14021,-29.33109
1555570941.15584,-33.38258
1555570941.17146,-37.50884
1555570941.18709,-41.30453
1555570941.20272,-44.19927
1555570941.21834,-45.53996
1555570941.23397,-44.78725
1555570941.24959,-41.62293
1555570941.26522,-36.09646
1555570941.28085,-28.65114
1555570941.29647,-20.04996
1555570941.3121,-11.24735
1555570941.32772,-3.148636
1555570941.34335,3.555445
1555570941.35897,8.493996
1555570941.3746,11.62499
1555570941.39023,13.12585
1555570941.40585,13.29013
1555570941.42148,12.44055
1555570941.4371,10.90963
1555570941.45273,9.00943
1555570941.46835,7.04648
1555570941.48398,5.270206
1555570941.49961,3.844656
1555570941.51523,2.839243
1555570941.53086,2.235256
1555570941.54648,1.970091
1555570941.56211,1.966803
1555570941.57773,2.157469
1555570941.59336,2.44174
1555570941.60899,2.746192
1555570941.62461,2.996949
1555570941.64024,3.122901
1555570941.65586,3.05543
1555570941.67149,2.711572
1555570941.68711,2.010871
1555570941.70274,0.8961086
1555570941.71837,-0.5928116
1555570941.73399,-2.338903
1555570941.74962,-4.141789
1555570941.76524,-5.845593
1555570941.78087,-7.382283
1555570941.79649,-8.80617
1555570941.81212,-10.23778
1555570941.82775,-11.7818
1555570941.84337,-13.45421
1555570941.859,-15.17951
1555570941.87462,-16.84289
1555570941.89025,-18.38276
1555570941.90587,-19.85156
1555570941.9215,-21.41993
1555570941.93713,-23.26771
1555570941.95275,-25.45666
1555570941.96838,-27.79216
1555570941.984,-29.78273
1555570941.99963,-30.72777
1555570942.01525,-29.87897
1555570942.03088,-26.67984
1555570942.04651,-20.97469
1555570942.06213,-13.04636
1555570942.07776,-3.537174
1555570942.09338,6.731865
1555570942.10901,16.96844
1555570942.12463,26.55589
1555570942.14026,35.02631
1555570942.15589,42.07256
1555570942.17151,47.47711
1555570942.18714,51.15059
1555570942.20276,53.14736
1555570942.21839,53.69315
1555570942.23401,53.12461
1555570942.24964,51.8407
1555570942.26527,50.21029
1555570942.28089,48.48528
1555570942.29652,46.82296
1555570942.31214,45.27793
1555570942.32777,43.84926
1555570942.34339,42.4838
1555570942.35902,41.12496
1555570942.37465,39.66619
1555570942.39027,38.01576
1555570942.4059,36.08718
1555570942.42152,33.79685
1555570942.43715,31.06549
1555570942.45277,27.8391
1555570942.4684,24.09867
1555570942.48403,19.88105
1555570942.49965,15.30539
1555570942.51528,10.52759
1555570942.5309,5.728092
1555570942.54653,1.044535
1555570942.56215,-3.4394
1555570942.57778,-7.728009
1555570942.59341,-11.88302
1555570942.60903,-16.03732
1555570942.62466,-20.37052
1555570942.64028,-25.06478
1555570942.65591,-30.20848
1555570942.67153,-35.7157
1555570942.68716,-41.2367
1555570942.70279,-46.16171
1555570942.71841,-49.73959
1555570942.73404,-51.29512
1555570942.74966,-50.42652
1555570942.76529,-47.11652
1555570942.78091,-41.71778
1555570942.79654,-34.82103
1555570942.81217,-27.1437
1555570942.82779,-19.35292
1555570942.84342,-12.01682
1555570942.85904,-5.529999
1555570942.87467,-0.1113567
1555570942.89029,4.228041
1555570942.90592,7.633486
1555570942.92155,10.33775
1555570942.93717,12.53707
1555570942.9528,14.30363
1555570942.96842,15.58849
1555570942.98405,16.28501
1555570942.99967,16.37638
1555570943.0153,16.00186
1555570943.03093,15.47497
1555570943.04655,15.2159
1555570943.06218,15.59304
1555570943.0778,16.81115
1555570943.09343,18.80294
1555570943.10905,21.30196
1555570943.12468,23.88367
1555570943.14031,26.12895
1555570943.15593,27.74119
1555570943.17156,28.57239
1555570943.18718,28.63628
1555570943.20281,28.00692
1555570943.21843,26.80659
1555570943.23406,25.15525
1555570943.24969,23.17516
1555570943.26531,20.97856
1555570943.28094,18.61926
1555570943.29656,16.09725
1555570943.31219,13.3277
1555570943.32781,10.2502
1555570943.34344,6.889168
1555570943.35907,3.492435
1555570943.37469,0.4810791
1555570943.39032,-1.645065
1555570943.40594,-2.51606
1555570943.42157,-2.087494
1555570943.43719,-0.7213516
1555570943.45282,0.9194107
1555570943.46845,2.097481
1555570943.48407,2.308876
1555570943.4997,1.543282
1555570943.51532,0.2942123
1555570943.53095,-0.655571
1555570943.54658,-0.5750885
1555570943.5622,0.8896103
1555570943.57783,3.613716
1555570943.59345,7.181435
1555570943.60908,11.16356
1555570943.6247,15.35704
1555570943.64033,19.77784
1555570943.65596,24.44047
1555570943.67158,29.06121
1555570943.68721,32.97758
1555570943.70283,35.2757
1555570943.71846,35.12689
1555570943.73408,32.04771
1555570943.74971,25.9865
1555570943.76534,17.20773
1555570943.78096,6.078568
1555570943.79659,-6.992584
1555570943.81221,-21.4288
1555570943.82784,-36.25352
1555570943.84346,-50.00861
1555570943.85909,-60.91823
1555570943.87472,-67.34885
1555570943.89034,-68.31682
1555570943.90597,-63.85196
1555570943.92159,-54.99332
1555570943.93722,-43.4512
1555570943.95284,-31.03697
1555570943.96847,-19.28307
1555570943.9841,-9.23558
1555570943.99972,-1.57637
1555570944.01535,3.292664
1555570944.03097,5.147598
1555570944.0466,4.037964
1555570944.06222,0.3952484
1555570944.07785,-5.016678
1555570944.09348,-11.26585
1555570944.1091,-17.62267
1555570944.12473,-23.75969
1555570944.14035,-29.7449
1555570944.15598,-35.83362
1555570944.1716,-42.12798
1555570944.18723,-48.32111
1555570944.20286,-53.67303
1555570944.21848,-57.13177
1555570944.23411,-57.54187
1555570944.24973,-53.85242
1555570944.26536,-45.24431
1555570944.28098,-31.27176
1555570944.29661,-11.97862
1555570944.31224,11.97089
1555570944.32786,39.30307
1555570944.34349,68.28299
1555570944.35911,96.91092
1555570944.37474,123.2571
1555570944.39036,145.742
1555570944.40599,163.3798
1555570944.42162,175.8866
1555570944.43724,183.5944
1555570944.45287,187.135
1555570944.46849,187.0314
1555570944.48412,183.4597
1555570944.49974,176.2832
1555570944.51537,165.4586
1555570944.531,151.4197
1555570944.54662,135.1754
1555570944.56225,117.9568
1555570944.57787,100.6343
1555570944.5935,83.3089
1555570944.60912,65.41077
1555570944.62475,46.3999
1555570944.64038,26.55347
1555570944.656,7.323212
1555570944.67163,-9.092804
1555570944.68725,-20.66519
1555570944.70288,-26.47174
1555570944.7185,-27.02097
1555570944.73413,-23.88483
1555570944.74976,-18.80521
1555570944.76538,-12.95676
1555570944.78101,-6.678741
1555570944.79663,0.3055725
1555570944.81226,8.288849
1555570944.82788,17.16617
1555570944.84351,26.28577
1555570944.85914,34.56396
1555570944.87476,40.76291
1555570944.89039,43.72696
1555570944.90601,42.56863
1555570944.92164,36.77008
1555570944.93726,26.30176
1555570944.95289,11.68524
1555570944.96852,-6.056946
1555570944.98414,-25.51862
1555570944.99977,-45.17059
1555570945.01539,-63.61115
1555570945.03102,-79.80542
1555570945.04664,-93.13568
1555570945.06227,-103.4314
1555570945.0779,-110.7966
1555570945.09352,-115.4773
1555570945.10915,-117.73
1555570945.12477,-117.8608
1555570945.1404,-116.2246
1555570945.15602,-113.3464
1555570945.17165,-109.887
1555570945.18728,-106.5358
1555570945.2029,-103.7918
1555570945.21853,-101.8152
1555570945.23415,-100.4183
1555570945.24978,-99.24005
1555570945.2654,-97.99518
1555570945.28103,-96.65808
1555570945.29666,-95.43829
1555570945.31228,-94.54614
1555570945.32791,-93.9137
1555570945.34353,-93.09943
1555570945.35916,-91.41992
1555570945.37478,-88.32489
1555570945.39041,-83.69806
1555570945.40604,-78.02167
1555570945.42166,-72.13062
1555570945.43729,-66.8299
1555570945.45291,-62.52228
1555570945.46854,-59.04718
1555570945.48416,-55.92999
1555570945.49979,-52.65271
1555570945.51542,-48.98505
1555570945.53104,-45.03979
1555570945.54667,-41.14716
1555570945.56229,-37.61743
1555570945.57792,-34.6308
1555570945.59354,-32.24982
1555570945.60917,-30.49231
1555570945.6248,-29.40051
1555570945.64042,-28.92517
1555570945.65605,-28.78943
1555570945.67167,-28.39636
1555570945.6873,-27.04681
1555570945.70292,-24.19739
1555570945.71855,-19.77112
1555570945.73418,-14.24377
1555570945.7498,-8.471497
1555570945.76543,-3.364929
1555570945.78105,0.4815063
1555570945.79668,2.895813
1555570945.8123,4.050354
1555570945.82793,4.33197
1555570945.84356,4.082886
1555570945.85918,3.553223
1555570945.87481,2.878723
1555570945.89043,2.140198
1555570945.90606,1.345032
1555570945.92168,0.4902954
1555570945.93731,-0.4968872
1555570945.95294,-1.699951
1555570945.96856,-3.171448
1555570945.98419,-4.908081
1555570945.99981,-6.767639
1555570946.01544,-8.533691
1555570946.03106,-9.975098
1555570946.04669,-10.9707
1555570946.06232,-11.55951
1555570946.07794,-11.93927
1555570946.09357,-12.33356
1555570946.10919,-12.86871
1555570946.12482,-13.50671
1555570946.14044,-14.07806
1555570946.15607,-14.39075
1555570946.1717,-14.37994
1555570946.18732,-14.1828
1555570946.20295,-14.07471
1555570946.21857,-14.34772
1555570946.2342,-15.16272
1555570946.24983,-16.53613
1555570946.26545,-18.34686
1555570946.28108,-20.42395
1555570946.2967,-22.62903
1555570946.31233,-24.8443
1555570946.32795,-26.91492
1555570946.34358,-28.58972
1555570946.35921,-29.46063
1555570946.37483,-29.00488
1555570946.39046,-26.67163
1555570946.40608,-22.06683
1555570946.42171,-15.07751
1555570946.43733,-5.955627
1555570946.45296,4.713013
1555570946.46859,16.14532
1555570946.48421,27.54584
1555570946.49984,38.28326
1555570946.51546,47.94995
1555570946.53109,56.33881
1555570946.54671,63.31665
1555570946.56234,68.7453
1555570946.57797,72.44257
1555570946.59359,74.25745
1555570946.60922,74.22559
1555570946.62484,72.61456
1555570946.64047,69.92419
1555570946.65609,66.76868
1555570946.67172,63.69867
1555570946.68735,61.0097
1555570946.70297,58.70447
1555570946.7186,56.54529
1555570946.73422,54.22406
1555570946.74985,51.50177
1555570946.76547,48.30359
1555570946.7811,44.6767
1555570946.79673,40.72437
1555570946.81235,36.53687
1555570946.82798,32.24268
1555570946.8436,28.07538
1555570946.85923,24.42188
1555570946.87485,21.71405
1555570946.89048,20.27625
1555570946.90611,20.10303
1555570946.92173,20.7865
1555570946.93736,21.6474
1555570946.95298,22.03021
1555570946.96861,21.55853
1555570946.98423,20.21967
1555570946.99986,18.22791
1555570947.01549,15.72754
1555570947.03111,12.59064
1555570947.04674,8.484741
1555570947.06236,3.188538
1555570947.07799,-3.041382
1555570947.09361,-9.305786
1555570947.10924,-14.26398
1555570947.12487,-16.61829
1555570947.14049,-15.70728
1555570947.15612,-11.78723
1555570947.17174,-6.032227
1555570947.18737,-0.1000366
1555570947.20299,4.381836
1555570947.21862,6.215332
1555570947.23425,4.871948
1555570947.24987,0.4159546
1555570947.2655,-6.616333
1555570947.28112,-15.48578
1555570947.29675,-25.3999
1555570947.31237,-35.70758
1555570947.328,-45.94653
1555570947.34363,-55.87823
1555570947.35925,-65.32843
1555570947.37488,-74.15808
1555570947.3905,-82.29675
1555570947.40613,-89.73627
1555570947.42175,-96.59229
1555570947.45301,-109.1219
1555570947.43738,-103.0331
1555570947.46863,-114.583
1555570947.48426,-118.7721
1555570947.49988,-121.0168
1555570947.51551,-120.9987
1555570947.53113,-118.9596
1555570947.54676,-115.3002
1555570947.56239,-109.9421
1555570947.57801,-102.04
1555570947.59364,-90.31961
1555570947.60926,-73.9606
1555570947.62489,-53.48337
1555570947.64051,-31.02859
1555570947.65614,-9.696716
1555570947.67177,7.467651
1555570947.68739,18.81516
1555570947.70302,24.50958
1555570947.71864,25.98798
1555570947.73427,25.08417
1555570947.74989,23.39709
1555570947.76552,22.25238
1555570947.78115,22.86929
1555570947.79677,26.46552
1555570947.8124,33.47772
1555570947.82802,43.89264
1555570947.84365,57.05179
1555570947.85927,71.547
1555570947.8749,85.40982
1555570947.89053,96.64255
1555570947.90615,103.9247
1555570947.92178,106.895
1555570947.9374,105.989
1555570947.95303,101.0245
1555570947.96865,92.31778
1555570947.98428,80.55261
1555570947.99991,66.08084
1555570948.01553,48.45569
1555570948.03116,26.7778
1555570948.04678,0.6604004
1555570948.06241,-28.9313
1555570948.07803,-59.2933
1555570948.09366,-87.9704
1555570948.10929,-111.399
1555570948.12491,-125.7247
1555570948.14054,-128.6828
1555570948.15616,-121.0829
1555570948.17179,-106.5917
1555570948.18741,-90.21448
1555570948.20304,-76.57703
1555570948.21867,-68.64038
1555570948.23429,-69.17125
1555570948.24992,-77.63831
1555570948.26554,-90.20146
1555570948.28117,-101.7823
1555570948.29679,-108.2398
1555570948.31242,-107.5823
1555570948.32805,-99.8022
1555570948.34367,-86.37659
1555570948.3593,-56.67278
1555570948.37492,-9.979263
1555570948.39055,44.27875
1555570948.40618,93.16353
1555570948.4218,128.5936
1555570948.43743,149.6802
1555570948.45305,159.6104
1555570948.46868,162.7348
1555570948.4843,162.9447
1555570948.49993,162.9727
1555570948.51556,162.4055
1555570948.53118,160.7267
1555570948.54681,158.3995
1555570948.56243,155.238
1555570948.57806,151.1484
1555570948.59368,146.6097
1555570948.60931,142.7292
1555570948.62494,140.6631
1555570948.64056,140.9644
1555570948.65619,142.293
1555570948.67181,143.1439
1555570948.68744,143.1259
1555570948.70306,139.9851
1555570948.71869,132.0744
1555570948.73432,119.2727
1555570948.74994,102.8016
1555570948.76557,84.2966
1555570948.78119,64.90354
1555570948.79682,44.97372
1555570948.81244,24.26482
1555570948.82807,3.339996
1555570948.8437,-19.9035
1555570948.85932,-47.51778
1555570948.87495,-79.99383
1555570948.89057,-116.4647
1555570948.9062,-155.1941
1555570948.92182,-194.1252
1555570948.93745,-230.3274
1555570948.95308,-261.5572
1555570948.9687,-268.3039
1555570948.98433,-241.2581
1555570948.99995,-188.6111
1555570949.01558,-129.8425
1555570949.0312,-80.69167
1555570949.04683,-45.74818
1555570949.06246,-27.16767
1555570949.07808,-16.43405
1555570949.09371,-8.675179
1555570949.10933,-2.087555
1555570949.12496,0.513176
1555570949.14058,-3.526115
1555570949.15621,-10.2208
1555570949.17184,-15.23711
1555570949.18746,-14.84544
1555570949.20309,-7.586105
1555570949.21871,6.675056
1555570949.23434,25.6781
1555570949.24996,47.14407
1555570949.26559,67.24074
1555570949.28122,83.43975
1555570949.29684,95.75265
1555570949.31247,105.488
1555570949.32809,114.2849
1555570949.34372,122.8614
1555570949.35934,131.7568
1555570949.37497,140.164
1555570949.3906,147.2721
1555570949.40622,151.096
1555570949.42185,150.2785
1555570949.43747,144.9811
1555570949.4531,136.1043
1555570949.46872,124.8044
1555570949.48435,111.7397
1555570949.49998,97.68214
1555570949.5156,82.95741
1555570949.53123,68.42616
1555570949.54685,54.78622
1555570949.56248,42.98401
1555570949.5781,34.12636
1555570949.59373,28.65283
1555570949.60936,26.20575
1555570949.62498,25.55345
1555570949.64061,25.34628
1555570949.65623,24.23488
1555570949.67186,21.49445
1555570949.68748,16.78571
1555570949.70311,10.34526
1555570949.71874,3.018036
1555570949.73436,-4.106842
1555570949.74999,-10.03647
1555570949.76561,-14.5103
1555570949.78124,-18.31392
1555570949.79686,-23.47914
1555570949.81249,-32.58551
1555570949.82812,-47.63556
1555570949.84374,-68.91536
1555570949.85937,-94.34183
1555570949.87499,-119.8048
1555570949.89062,-140.3314
1555570949.90624,-151.751
1555570949.92187,-152.0641
1555570949.9375,-142.0019
1555570949.95312,-124.6058
1555570949.96875,-104.0154
1555570949.98437,-84.14482
1555570950,-67.59274
1555570950.01562,-55.27559
1555570950.03125,-46.63516
1555570950.04688,-40.43446
1555570950.0625,-35.50665
1555570950.07813,-31.26642
1555570950.09375,-27.80151
1555570950.10938,-25.52115
1555570950.125,-24.82019
1555570950.14063,-25.76172
1555570950.15626,-28.06622
1555570950.17188,-31.15302
1555570950.18751,-34.25772
1555570950.20313,-36.39502
1555570950.21876,-36.45941
1555570950.23438,-33.45596
1555570950.25001,-26.90613
1555570950.26564,-17.32242
1555570950.28126,-6.263733
1555570950.29689,4.040802
1555570950.31251,11.45395
1555570950.32814,14.68384
1555570950.34376,13.65948
1555570950.35939,9.349365
1555570950.37502,3.257141
1555570950.39064,-3.115814
1555570950.40627,-8.609253
1555570950.42189,-12.45374
1555570950.43752,-14.24319
1555570950.45314,-13.92822
1555570950.46877,-11.90387
1555570950.4844,-8.95105
1555570950.50002,-6.124588
1555570950.51565,-4.417709
1555570950.53127,-4.405823
1555570950.5469,-6.127472
1555570950.56252,-9.067078
1555570950.57815,-12.3889
1555570950.59378,-15.1552
1555570950.6094,-16.64374
1555570950.62503,-16.42116
1555570950.64065,-14.44624
1555570950.65628,-11.00249
1555570950.67191,-6.581268
1555570950.68753,-1.756165
1555570950.70316,3.008698
1555570950.71878,7.441223
1555570950.73441,11.44856
1555570950.75003,14.99658
1555570950.76566,17.99806
1555570950.78129,20.28011
1555570950.79691,21.62758
1555570950.81254,21.90567
1555570950.82816,21.18251
1555570950.84379,19.72798
1555570950.85941,17.95377
1555570950.87504,16.23669
1555570950.89067,14.78592
1555570950.90629,13.61545
1555570950.92192,12.60533
1555570950.93754,11.63737
1555570950.95317,10.68945
1555570950.96879,9.866455
1555570950.98442,9.31749
1555570951.00005,9.121048
1555570951.01567,9.23468
1555570951.0313,9.501297
1555570951.04692,9.727448
1555570951.06255,9.749695
1555570951.07817,9.465149
1555570951.0938,8.856888
1555570951.10943,7.929276
1555570951.12505,6.706985
1555570951.14068,5.221756
1555570951.1563,3.530792
1555570951.17193,1.695618
1555570951.18755,-0.2263641
1555570951.20318,-2.236526
1555570951.21881,-4.388229
1555570951.23443,-6.761826
1555570951.25006,-9.380875
1555570951.26568,-12.1221
1555570951.28131,-14.65495
1555570951.29693,-16.52814
1555570951.31256,-17.27223
1555570951.32819,-16.59036
1555570951.34381,-14.42265
1555570951.35944,-10.95558
1555570951.37506,-6.511093
1555570951.39069,-1.464737
1555570951.40631,3.848007
1555570951.42194,9.101868
1555570951.43757,13.983
1555570951.45319,18.14345
1555570951.46882,21.27255
1555570951.48444,23.18839
1555570951.50007,23.88496
1555570951.51569,23.53122
1555570951.53132,22.42923
1555570951.54695,20.86673
1555570951.56257,19.07445
1555570951.5782,17.19379
1555570951.59382,15.29559
1555570951.60945,13.44516
1555570951.62507,11.66965
1555570951.6407,9.989532
1555570951.65633,8.408234
1555570951.67195,6.940491
1555570951.68758,5.655182
1555570951.7032,4.602066
1555570951.71883,3.821289
1555570951.73445,3.231537
1555570951.75008,2.663147
1555570951.76571,1.909439
1555570951.78133,0.8143768
1555570951.79696,-0.6575623
1555570951.81258,-2.395737
1555570951.82821,-4.246368
1555570951.84383,-6.072876
1555570951.85946,-7.841034
1555570951.87509,-9.650696
1555570951.89071,-11.6311
1555570951.90634,-13.89574
1555570951.92196,-16.47884
1555570951.93759,-19.26427
1555570951.95321,-22.01634
1555570951.96884,-24.37393
1555570951.98447,-25.9229
1555570952.00009,-26.25369
1555570952.01572,-25.12489
1555570952.03134,-22.50972
1555570952.04697,-18.61266
1555570952.06259,-13.78287
1555570952.07822,-8.39856
1555570952.09385,-2.762993
1555570952.10947,2.865906
1555570952.1251,8.252777
1555570952.14072,13.09146
1555570952.15635,17.02574
1555570952.17197,19.71639
1555570952.1876,20.96333
1555570952.20323,20.79997
1555570952.21885,19.5162
1555570952.23448,17.57749
1555570952.2501,15.47414
1555570952.26573,13.58698
1555570952.28135,12.08702
1555570952.29698,10.92551
1555570952.31261,9.921661
1555570952.32823,8.881149
1555570952.34386,7.692726
1555570952.35948,6.391212
1555570952.37511,5.094765
1555570952.39073,3.909546
1555570952.40636,2.882126
1555570952.42199,1.963638
1555570952.43761,1.061729
1555570952.45324,0.105835
1555570952.46886,-0.9013214
1555570952.48449,-1.898033
1555570952.50011,-2.863113
1555570952.51574,-3.850235
1555570952.53137,-5.009964
1555570952.54699,-6.515823
1555570952.56262,-8.466209
1555570952.57824,-10.85245
1555570952.59387,-13.55775
1555570952.60949,-16.43617
1555570952.62512,-19.31958
1555570952.64075,-22.07953
1555570952.65637,-24.52206
1555570952.672,-26.37778
1555570952.68762,-27.29169
1555570952.70325,-26.91293
1555570952.71887,-25.00317
1555570952.7345,-21.54887
1555570952.75013,-16.79671
1555570952.76575,-11.19965
1555570952.78138,-5.292755
1555570952.797,0.4586945
1555570952.81263,5.715332
1555570952.82825,10.30009
1555570952.84388,14.12877
1555570952.85951,17.12185
1555570952.87513,19.2071
1555570952.89076,20.34359
1555570952.90638,20.56026
1555570952.92201,20.0112
1555570952.93763,18.97243
1555570952.95326,17.74985
1555570952.96889,16.62299
1555570952.98451,15.71329
1555570953.00014,14.96241
1555570953.01576,14.19707
1555570953.03139,13.22885
1555570953.04701,11.97186
1555570953.06264,10.51669
1555570953.07827,9.110603
1555570953.09389,7.998192
1555570953.10952,7.321457
1555570953.12514,7.025917
1555570953.14077,6.851707
1555570953.15639,6.468346
1555570953.17202,5.610466
1555570953.18765,4.218636
1555570953.20327,2.413673
1555570953.2189,0.4644241
1555570953.23452,-1.393131
1555570953.25015,-3.042248
1555570953.26578,-4.499317
1555570953.2814,-5.904716
1555570953.29703,-7.408794
1555570953.31265,-9.180729
1555570953.32828,-11.35321
1555570953.3439,-14.00784
1555570953.35953,-17.07314
1555570953.37516,-20.26446
1555570953.39078,-23.05669
1555570953.40641,-24.78231
1555570953.42203,-24.80104
1555570953.43766,-22.73973
1555570953.45328,-18.62831
1555570953.46891,-12.88853
1555570953.48454,-6.240669
1555570953.50016,0.5547295
1555570953.51579,6.797226
1555570953.53141,12.02089
1555570953.54704,15.95639
1555570953.56266,18.51726
1555570953.57829,19.77188
1555570953.59392,19.9224
1555570953.60954,19.26311
1555570953.62517,18.154
1555570953.64079,16.92057
1555570953.65642,15.81196
1555570953.67204,14.90049
1555570953.68767,14.15021
1555570953.7033,13.41341
1555570953.71892,12.57185
1555570953.73455,11.57854
1555570953.75017,10.51115
1555570953.7658,9.536613
1555570953.78142,8.784702
1555570953.79705,8.301407
1555570953.81268,7.985355
1555570953.8283,7.647491
1555570953.84393,7.114491
1555570953.85955,6.256966
1555570953.87518,5.042908
1555570953.8908,3.463802
1555570953.90643,1.535686
1555570953.92206,-0.6998672
1555570953.93768,-3.120625
1555570953.95331,-5.524773
1555570953.96893,-7.696321
1555570953.98456,-9.547344
1555570954.00018,-11.1954
1555570954.01581,-12.94364
1555570954.03144,-15.13126
1555570954.04706,-17.91455
1555570954.06269,-21.1442
1555570954.07831,-24.3883
1555570954.09394,-27.06269
1555570954.10956,-28.60055
1555570954.12519,-28.58619
1555570954.14082,-26.81819
1555570954.15644,-23.34856
1555570954.17207,-18.46463
1555570954.18769,-12.64071
1555570954.20332,-6.45731
1555570954.21894,-0.4543457
1555570954.23457,4.962927
1555570954.2502,9.634422
1555570954.26582,13.53393
1555570954.28145,16.66317
1555570954.29707,18.94358
1555570954.3127,20.22986
1555570954.32832,20.41098
1555570954.34395,19.56561
1555570954.35958,18.01047
1555570954.3752,16.2382
1555570954.39083,14.71018
1555570954.40645,13.69072
1555570954.42208,13.13243
1555570954.4377,12.75467
1555570954.45333,12.20207
1555570954.46896,11.23755
1555570954.48458,9.876
1555570954.50021,8.376147
1555570954.51583,7.109595
1555570954.53146,6.364693
1555570954.54708,6.175116
1555570954.56271,6.287175
1555570954.57834,6.320502
1555570954.59396,5.923805
1555570954.60959,4.960609
1555570954.62521,3.508557
1555570954.64084,1.76649
1555570954.65646,-0.1029725
1555570954.67209,-2.07602
1555570954.68772,-4.168569
1555570954.70334,-6.388869
1555570954.71897,-8.613716
1555570954.73459,-10.68323
1555570954.75022,-12.50872
1555570954.76584,-14.22401
1555570954.78147,-16.14293
1555570954.7971,-18.57743
